# Matter power spectrum P(k) at redshift z=1
# for k=1.04952e-05 to 58.9789 h/Mpc,
# number of wavenumbers equal to 575
#    1:k (h/Mpc)              2:P (Mpc/h)^3        
       1.049521996540e-05       1.760387739455e+01 
       2.312703140351e-05       3.773018985105e+01 
       3.580220203963e-05       5.751888002007e+01 
       4.855352787053e-05       7.717338766789e+01 
       6.141433211936e-05       9.681033440860e+01 
       7.441875102904e-05       1.165173303246e+02 
       8.760202852808e-05       1.363693372732e+02 
       1.010008235465e-04       1.564353986205e+02 
       1.146535337898e-04       1.767820844828e+02 
       1.286006398104e-04       1.974755814877e+02 
       1.428850732267e-04       2.185728195129e+02 
       1.575526129020e-04       2.401616689508e+02 
       1.726523127585e-04       2.623062618823e+02 
       1.882369646229e-04       2.850831076605e+02 
       2.043635989836e-04       3.085735290747e+02 
       2.210940257026e-04       3.328644782204e+02 
       2.384954154191e-04       3.580493569393e+02 
       2.566409204418e-04       3.842288460610e+02 
       2.756103311382e-04       4.115117420243e+02 
       2.954907599292e-04       4.400157899479e+02 
       3.163773396783e-04       4.698684930318e+02 
       3.383739161997e-04       5.012078656743e+02 
       3.615937054699e-04       5.341830851550e+02 
       3.861598746494e-04       5.689549814229e+02 
       4.122059921309e-04       6.056962791553e+02 
       4.398762757783e-04       6.445914966386e+02 
       4.693255511264e-04       6.858363652986e+02 
       5.007188142551e-04       7.296366392938e+02 
       5.342302801493e-04       7.762061252672e+02 
       5.700417908375e-04       8.257637830367e+02 
       6.083404640704e-04       8.785297516355e+02 
       6.493154893013e-04       9.347202254898e+02 
       6.931540295049e-04       9.945411662125e+02 
       7.400362688145e-04       1.058180992287e+03 
       7.901297556666e-04       1.125802522225e+03 
       8.435833195404e-04       1.197534644473e+03 
       9.005209670199e-04       1.273464332861e+03 
       9.610362618295e-04       1.353629743720e+03 
       1.025187732878e-03       1.438015142844e+03 
       1.092995810025e-03       1.526548259616e+03 
       1.164441652253e-03       1.619100512891e+03 
       1.239468023948e-03       1.715475665605e+03 
       1.317982131218e-03       1.815450818569e+03 
       1.365374112507e-03       1.875366752120e+03 
       1.399860102217e-03       1.918763318621e+03 
       1.484952629637e-03       2.025114113760e+03 
       1.573091217505e-03       2.134183929550e+03 
       1.664094490714e-03       2.245642822458e+03 
       1.757774114867e-03       2.359159232372e+03 
       1.853940004620e-03       2.474407374025e+03 
       1.952404638443e-03       2.591073288289e+03 
       2.052986422001e-03       2.708859229279e+03 
       2.155512137086e-03       2.827486758690e+03 
       2.259818574702e-03       2.946698136033e+03 
       2.365753482517e-03       3.066257131021e+03 
       2.473175965450e-03       3.185949022868e+03 
       2.581956471182e-03       3.305579795519e+03 
       2.691976476543e-03       3.424975100721e+03 
       2.803127971240e-03       3.543979259800e+03 
       2.915312815527e-03       3.662453912209e+03 
       3.028442030286e-03       3.780275827136e+03 
       3.142435062419e-03       3.897337479019e+03 
       3.257219055803e-03       4.013542134267e+03 
       3.372728148150e-03       4.128806541747e+03 
       3.488902806543e-03       4.243056319516e+03 
       3.605689208915e-03       4.356228547829e+03 
       3.723038674752e-03       4.468266141310e+03 
       3.840907145565e-03       4.579121132243e+03 
       3.959254713861e-03       4.688751982072e+03 
       4.078045198199e-03       4.797122667447e+03 
       4.197245761236e-03       4.904203643071e+03 
       4.316826567374e-03       5.009967752936e+03 
       4.436760476516e-03       5.114395201268e+03 
       4.557022770484e-03       5.217467602139e+03 
       4.677590908857e-03       5.319169771813e+03 
       4.798444311143e-03       5.419491603743e+03 
       4.919564162495e-03       5.518422839362e+03 
       5.040933240388e-03       5.615958100126e+03 
       5.162535759947e-03       5.712092555141e+03 
       5.284357235852e-03       5.806821451298e+03 
       5.406384358951e-03       5.900146969601e+03 
       5.528604885928e-03       5.992066529158e+03 
       5.651007540563e-03       6.082583397050e+03 
       5.773581925274e-03       6.171701376839e+03 
       5.896318441787e-03       6.259422302588e+03 
       6.019208219924e-03       6.345752083921e+03 
       6.142243053592e-03       6.430696681787e+03 
       6.265415343199e-03       6.514262364690e+03 
       6.388718043770e-03       6.596454665948e+03 
       6.512144618156e-03       6.677283372108e+03 
       6.635688994790e-03       6.756754928284e+03 
       6.759345529484e-03       6.834878295510e+03 
       6.883108970869e-03       6.911663640011e+03 
       7.006974429057e-03       6.987115330088e+03 
       7.130937347233e-03       7.061248591909e+03 
       7.254993475829e-03       7.134071472969e+03 
       7.379138849064e-03       7.205593090737e+03 
       7.503369763566e-03       7.275819477971e+03 
       7.627682758903e-03       7.344769218284e+03 
       7.752074599819e-03       7.412445494769e+03 
       7.876542260001e-03       7.478855601788e+03 
       8.001082907249e-03       7.544021169132e+03 
       8.125693889895e-03       7.607949496898e+03 
       8.250372724364e-03       7.670649310624e+03 
       8.375117083770e-03       7.732129079834e+03 
       8.499924787441e-03       7.792406988695e+03 
       8.624793791300e-03       7.851487339789e+03 
       8.749722179018e-03       7.909381808447e+03 
       8.874708153873e-03       7.966100185971e+03 
       8.999750031245e-03       8.021653487205e+03 
       9.124846231701e-03       8.076061647331e+03 
       9.249995274615e-03       8.129325466735e+03 
       9.375195772273e-03       8.181457257100e+03 
       9.500446424428e-03       8.232470036301e+03 
       9.625746013265e-03       8.282370054409e+03 
       9.751093398737e-03       8.331173760075e+03 
       9.876487514253e-03       8.378890264407e+03 
       1.000192736268e-02       8.425526143088e+03 
       1.012741201262e-02       8.471096406955e+03 
       1.025294059501e-02       8.515608807921e+03 
       1.037851229988e-02       8.559076768716e+03 
       1.050412637342e-02       8.601502399234e+03 
       1.062978211522e-02       8.642908440336e+03 
       1.075547887571e-02       8.683299764296e+03 
       1.088121605378e-02       8.722681920725e+03 
       1.100699309458e-02       8.761068702495e+03 
       1.113280948744e-02       8.798468655467e+03 
       1.125866476396e-02       8.834897068981e+03 
       1.138455849626e-02       8.870353556470e+03 
       1.151049029527e-02       8.904859031714e+03 
       1.163645980924e-02       8.938417466394e+03 
       1.176246672226e-02       8.971036168112e+03 
       1.188851075295e-02       9.002733574770e+03 
       1.201459165321e-02       9.033511063943e+03 
       1.214070920707e-02       9.063379612925e+03 
       1.226686322961e-02       9.092350856798e+03 
       1.239305356596e-02       9.120435218148e+03 
       1.251928009038e-02       9.147638089102e+03 
       1.264554270538e-02       9.173975624294e+03 
       1.277184134097e-02       9.199447976952e+03 
       1.289817595385e-02       9.224069228645e+03 
       1.302454652681e-02       9.247849476514e+03 
       1.315095306802e-02       9.270794355284e+03 
       1.327739561051e-02       9.292916806224e+03 
       1.340387421161e-02       9.314221717442e+03 
       1.353038895245e-02       9.334713737984e+03 
       1.365374112507e-02       9.353927636902e+03 
       1.365693993753e-02       9.354415698976e+03 
       1.378352729429e-02       9.373319025569e+03 
       1.391015117276e-02       9.391451962897e+03 
       1.403681174522e-02       9.408808693835e+03 
       1.416350920586e-02       9.425398510323e+03 
       1.429024377057e-02       9.441243164548e+03 
       1.441701567666e-02       9.456334233061e+03 
       1.454382518265e-02       9.470687975906e+03 
       1.467067256809e-02       9.484310863341e+03 
       1.479755813344e-02       9.497211652158e+03 
       1.492448219987e-02       9.509398556644e+03 
       1.505144510923e-02       9.520887606396e+03 
       1.517844722390e-02       9.531668365080e+03 
       1.530548892679e-02       9.541774561314e+03 
       1.543257062128e-02       9.551190959189e+03 
       1.555969273119e-02       9.559937449975e+03 
       1.568685570080e-02       9.568017354244e+03 
       1.581405999491e-02       9.575440742899e+03 
       1.594130609881e-02       9.582218674159e+03 
       1.606859451845e-02       9.588354017204e+03 
       1.619592578041e-02       9.593853942618e+03 
       1.632330043209e-02       9.598729575121e+03 
       1.645071904182e-02       9.602990252316e+03 
       1.657818219894e-02       9.606637409788e+03 
       1.670569051404e-02       9.609682219324e+03 
       1.683324461908e-02       9.612134682765e+03 
       1.696084516758e-02       9.613996746040e+03 
       1.708849283487e-02       9.615276765066e+03 
       1.721618831828e-02       9.615990766342e+03 
       1.734393233738e-02       9.616136149196e+03 
       1.747172563426e-02       9.615722762013e+03 
       1.759956897380e-02       9.614758471989e+03 
       1.772746314395e-02       9.613253469245e+03 
       1.785540895603e-02       9.611205188503e+03 
       1.798340724509e-02       9.608639014269e+03 
       1.811145887023e-02       9.605543776746e+03 
       1.823956471493e-02       9.601934940436e+03 
       1.836772568748e-02       9.597819629737e+03 
       1.849594272132e-02       9.593199189566e+03 
       1.862421677549e-02       9.588090287098e+03 
       1.875254883503e-02       9.582488784267e+03 
       1.888093991143e-02       9.576413602585e+03 
       1.900939104308e-02       9.569860939218e+03 
       1.913790329576e-02       9.562840562743e+03 
       1.926647776316e-02       9.555366315192e+03 
       1.939511556735e-02       9.547434551128e+03 
       1.952381785932e-02       9.539051697767e+03 
       1.965258581958e-02       9.530230387697e+03 
       1.978142065867e-02       9.520988946719e+03 
       1.991032361781e-02       9.511304875210e+03 
       2.003929596947e-02       9.501202693412e+03 
       2.016833901800e-02       9.490691035812e+03 
       2.029745410034e-02       9.479772325158e+03 
       2.042664258664e-02       9.468448421008e+03 
       2.055590588096e-02       9.456724763012e+03 
       2.068524542204e-02       9.444619782228e+03 
       2.081466268399e-02       9.432129338697e+03 
       2.094415917710e-02       9.419263425769e+03 
       2.107373644860e-02       9.406022816845e+03 
       2.120339608349e-02       9.392422599864e+03 
       2.133313970539e-02       9.378464069418e+03 
       2.146296897743e-02       9.364153595070e+03 
       2.159288560309e-02       9.349490275024e+03 
       2.172289132719e-02       9.334486620110e+03 
       2.185298793680e-02       9.319160437553e+03 
       2.198317726226e-02       9.303487631501e+03 
       2.211346117817e-02       9.287503135471e+03 
       2.224384160444e-02       9.271192571961e+03 
       2.237432050741e-02       9.254580595193e+03 
       2.250489990091e-02       9.237659015556e+03 
       2.263558184744e-02       9.220440596794e+03 
       2.276636845936e-02       9.202925443502e+03 
       2.289726190010e-02       9.185103423071e+03 
       2.302826438544e-02       9.167013919486e+03 
       2.315937818478e-02       9.148641707498e+03 
       2.329060562252e-02       9.129991539360e+03 
       2.342194907944e-02       9.111062939014e+03 
       2.355341099411e-02       9.091895208999e+03 
       2.368499386438e-02       9.072447384448e+03 
       2.381670024890e-02       9.052778324551e+03 
       2.394853276872e-02       9.033008801415e+03 
       2.408049410886e-02       9.012653763919e+03 
       2.421258702004e-02       8.992350268069e+03 
       2.434481432038e-02       8.971598029935e+03 
       2.447717889721e-02       8.950811157506e+03 
       2.460968370890e-02       8.929529198880e+03 
       2.474233178679e-02       8.908189722871e+03 
       2.487512623713e-02       8.886673861763e+03 
       2.500807024316e-02       8.864914481985e+03 
       2.514116706717e-02       8.842998912261e+03 
       2.527442005274e-02       8.820924220680e+03 
       2.540783262693e-02       8.798610306721e+03 
       2.554140830266e-02       8.775981847912e+03 
       2.567515068109e-02       8.753266180185e+03 
       2.580906345412e-02       8.730257034281e+03 
       2.594315040699e-02       8.707210652593e+03 
       2.607741542092e-02       8.684120423430e+03 
       2.621186247592e-02       8.660501914633e+03 
       2.634649565360e-02       8.636888711943e+03 
       2.648131914018e-02       8.613083524427e+03 
       2.661633722956e-02       8.589265171604e+03 
       2.675155432646e-02       8.565248954803e+03 
       2.688697494980e-02       8.540993443685e+03 
       2.702260373605e-02       8.516702942044e+03 
       2.715844544282e-02       8.492086003779e+03 
       2.729450495252e-02       8.467562147534e+03 
       2.743078727620e-02       8.442634234614e+03 
       2.756729755751e-02       8.417772998053e+03 
       2.770404107680e-02       8.392795181667e+03 
       2.784102325542e-02       8.367634452416e+03 
       2.797824966012e-02       8.342311323920e+03 
       2.811572600772e-02       8.316918009926e+03 
       2.825345816984e-02       8.291418078610e+03 
       2.839145217793e-02       8.265766009010e+03 
       2.852971422842e-02       8.240031831082e+03 
       2.866825068814e-02       8.214335993747e+03 
       2.880706809989e-02       8.188275828148e+03 
       2.894617318833e-02       8.162401229966e+03 
       2.908557286599e-02       8.136128628848e+03 
       2.922527423967e-02       8.109965752160e+03 
       2.936528461699e-02       8.083695303625e+03 
       2.950561151327e-02       8.057477879333e+03 
       2.964626265871e-02       8.030999674441e+03 
       2.978724600587e-02       8.004376390207e+03 
       2.992856973743e-02       7.977758097643e+03 
       3.007024227437e-02       7.951194668396e+03 
       3.021227228447e-02       7.924283886307e+03 
       3.035466869112e-02       7.897574264263e+03 
       3.049744068270e-02       7.870598623708e+03 
       3.064059772216e-02       7.843651141498e+03 
       3.078414955727e-02       7.816745776235e+03 
       3.092810623112e-02       7.789641557386e+03 
       3.107247809328e-02       7.762550919689e+03 
       3.121727581141e-02       7.735368714397e+03 
       3.136251038344e-02       7.708253600033e+03 
       3.150819315026e-02       7.680911242856e+03 
       3.165433580918e-02       7.653679750227e+03 
       3.180095042788e-02       7.626265864427e+03 
       3.194804945918e-02       7.598841431050e+03 
       3.209564575643e-02       7.571467416534e+03 
       3.224375258975e-02       7.544022789899e+03 
       3.239238366311e-02       7.516543154892e+03 
       3.254155313219e-02       7.488868541855e+03 
       3.269127562329e-02       7.461211108980e+03 
       3.284156625309e-02       7.433701337122e+03 
       3.299244064961e-02       7.406072273896e+03 
       3.314391497415e-02       7.378382982952e+03 
       3.329600594452e-02       7.350648374140e+03 
       3.344873085946e-02       7.322906545356e+03 
       3.360210762447e-02       7.295145889788e+03 
       3.375615477904e-02       7.267436102718e+03 
       3.391089152544e-02       7.239753715813e+03 
       3.406633775914e-02       7.211800349006e+03 
       3.422251410098e-02       7.183909224631e+03 
       3.437944193124e-02       7.156120157131e+03 
       3.453714342572e-02       7.128273718295e+03 
       3.469564159391e-02       7.100343774211e+03 
       3.485496031959e-02       7.072433998710e+03 
       3.501512440381e-02       7.044521137643e+03 
       3.517615961053e-02       7.016614294467e+03 
       3.533809271520e-02       6.988574448740e+03 
       3.550095155638e-02       6.960601969487e+03 
       3.566476509059e-02       6.932646367961e+03 
       3.582956345090e-02       6.904652276017e+03 
       3.599537800921e-02       6.876590001440e+03 
       3.616224144278e-02       6.848583426203e+03 
       3.633018780522e-02       6.820528498316e+03 
       3.649925260238e-02       6.792393285798e+03 
       3.666947287342e-02       6.764371663485e+03 
       3.684088727768e-02       6.736202429046e+03 
       3.701353618767e-02       6.708176691842e+03 
       3.718746178881e-02       6.679957628589e+03 
       3.736270818650e-02       6.651802635544e+03 
       3.753932152108e-02       6.623708009470e+03 
       3.771735009151e-02       6.595521584397e+03 
       3.789684448856e-02       6.567339386806e+03 
       3.807785773819e-02       6.539096515417e+03 
       3.826044545641e-02       6.511040949958e+03 
       3.844466601636e-02       6.482621612492e+03 
       3.863058072912e-02       6.454438948785e+03 
       3.881825403931e-02       6.426168485431e+03 
       3.900775373718e-02       6.397839658794e+03 
       3.919915118867e-02       6.369334006129e+03 
       3.939252158552e-02       6.340986562551e+03 
       3.958794421722e-02       6.312518398519e+03 
       3.978550276748e-02       6.284162903393e+03 
       3.998528563753e-02       6.255636781139e+03 
       4.018738629947e-02       6.227124275953e+03 
       4.039190368285e-02       6.198638868834e+03 
       4.059894259839e-02       6.169919548164e+03 
       4.080861420303e-02       6.141226649449e+03 
       4.102103651135e-02       6.112572045028e+03 
       4.123633495873e-02       6.083793757525e+03 
       4.145464302275e-02       6.054938160226e+03 
       4.167610291004e-02       6.026039037294e+03 
       4.190086631689e-02       5.997027148918e+03 
       4.212909527328e-02       5.968002635640e+03 
       4.236096308119e-02       5.938911443026e+03 
       4.259665536020e-02       5.909666383650e+03 
       4.283637121485e-02       5.880383834815e+03 
       4.308032454123e-02       5.851022907109e+03 
       4.332874549257e-02       5.821498253142e+03 
       4.358188212733e-02       5.791832253063e+03 
       4.384000226720e-02       5.762201741200e+03 
       4.410339559722e-02       5.732310040097e+03 
       4.437237604613e-02       5.702380370093e+03 
       4.464728449199e-02       5.672163041772e+03 
       4.492849184662e-02       5.641828559503e+03 
       4.521640258286e-02       5.611342111923e+03 
       4.551145878105e-02       5.580697497622e+03 
       4.581414478669e-02       5.549897909634e+03 
       4.612499259042e-02       5.518735634287e+03 
       4.644458806457e-02       5.487438153842e+03 
       4.677357822008e-02       5.455904190633e+03 
       4.711267968374e-02       5.424106218583e+03 
       4.746268864115e-02       5.391845377470e+03 
       4.782449254793e-02       5.359425414917e+03 
       4.819908398384e-02       5.326722093921e+03 
       4.858757711544e-02       5.293517434984e+03 
       4.899122734876e-02       5.259856729392e+03 
       4.941145490069e-02       5.225903469523e+03 
       4.984987320553e-02       5.191452147929e+03 
       5.030832331237e-02       5.156378581952e+03 
       5.078891573332e-02       5.120647313074e+03 
       5.129408158764e-02       5.084284241502e+03 
       5.182663536882e-02       5.047246613983e+03 
       5.238985225398e-02       5.009149411654e+03 
       5.298756357876e-02       4.970345165503e+03 
       5.362427488643e-02       4.930298323675e+03 
       5.430531172732e-02       4.888836993392e+03 
       5.503699888707e-02       4.846094775832e+03 
       5.582687841361e-02       4.801331547146e+03 
       5.668396957533e-02       4.754751024209e+03 
       5.761906753035e-02       4.705525156393e+03 
