# Matter power spectrum P(k) at redshift z=0.5
# for k=1.04952e-05 to 58.9789 h/Mpc,
# number of wavenumbers equal to 575
#    1:k (h/Mpc)              2:P (Mpc/h)^3        
       1.049521996540e-05       2.809686578162e+01 
       2.312703140351e-05       6.021989501177e+01 
       3.580220203963e-05       9.180449923204e+01 
       4.855352787053e-05       1.231756129864e+02 
       6.141433211936e-05       1.545196025068e+02 
       7.441875102904e-05       1.859765283650e+02 
       8.760202852808e-05       2.176662671909e+02 
       1.010008235465e-04       2.496992496491e+02 
       1.146535337898e-04       2.821819632213e+02 
       1.286006398104e-04       3.152202819214e+02 
       1.428850732267e-04       3.488963101542e+02 
       1.575526129020e-04       3.833666185474e+02 
       1.726523127585e-04       4.187264568626e+02 
       1.882369646229e-04       4.550981300329e+02 
       2.043635989836e-04       4.926116032091e+02 
       2.210940257026e-04       5.314057942933e+02 
       2.384954154191e-04       5.716298715937e+02 
       2.566409204418e-04       6.134445635993e+02 
       2.756103311382e-04       6.570234763410e+02 
       2.954907599292e-04       7.025544041279e+02 
       3.163773396783e-04       7.502405977454e+02 
       3.383739161997e-04       8.003019420268e+02 
       3.615937054699e-04       8.529759707006e+02 
       3.861598746494e-04       9.085186215128e+02 
       4.122059921309e-04       9.672045999276e+02 
       4.398762757783e-04       1.029327200358e+03 
       4.693255511264e-04       1.095197371930e+03 
       5.007188142551e-04       1.165141824403e+03 
       5.342302801493e-04       1.239499909193e+03 
       5.700417908375e-04       1.318619040066e+03 
       6.083404640704e-04       1.402848423420e+03 
       6.493154893013e-04       1.492530981411e+03 
       6.931540295049e-04       1.587993431661e+03 
       7.400362688145e-04       1.689534750680e+03 
       7.901297556666e-04       1.797413432833e+03 
       8.435833195404e-04       1.911834287214e+03 
       9.005209670199e-04       2.032935729143e+03 
       9.610362618295e-04       2.160778732932e+03 
       1.025187732878e-03       2.295338631265e+03 
       1.092995810025e-03       2.436500736294e+03 
       1.164441652253e-03       2.584060531689e+03 
       1.239468023948e-03       2.737705440002e+03 
       1.317982131218e-03       2.897080210751e+03 
       1.365374112507e-03       2.992590609903e+03 
       1.399860102217e-03       3.061766060712e+03 
       1.484952629637e-03       3.231286205923e+03 
       1.573091217505e-03       3.405131803956e+03 
       1.664094490714e-03       3.582777281465e+03 
       1.757774114867e-03       3.763694733695e+03 
       1.853940004620e-03       3.947365547128e+03 
       1.952404638443e-03       4.133289832638e+03 
       2.052986422001e-03       4.320993271515e+03 
       2.155512137086e-03       4.510032001457e+03 
       2.259818574702e-03       4.699994943418e+03 
       2.365753482517e-03       4.890505277616e+03 
       2.473175965450e-03       5.081220555448e+03 
       2.581956471182e-03       5.271831498872e+03 
       2.691976476543e-03       5.462060279417e+03 
       2.803127971240e-03       5.651658809150e+03 
       2.915312815527e-03       5.840406516029e+03 
       3.028442030286e-03       6.028106843119e+03 
       3.142435062419e-03       6.214588230819e+03 
       3.257219055803e-03       6.399696360721e+03 
       3.372728148150e-03       6.583298498229e+03 
       3.488902806543e-03       6.765276123177e+03 
       3.605689208915e-03       6.945529005182e+03 
       3.723038674752e-03       7.123966245576e+03 
       3.840907145565e-03       7.300511281064e+03 
       3.959254713861e-03       7.475098007078e+03 
       4.078045198199e-03       7.647668961365e+03 
       4.197245761236e-03       7.818177042490e+03 
       4.316826567374e-03       7.986579194329e+03 
       4.436760476516e-03       8.152843941397e+03 
       4.557022770484e-03       8.316941979320e+03 
       4.677590908857e-03       8.478849328929e+03 
       4.798444311143e-03       8.638549872032e+03 
       4.919564162495e-03       8.796027381923e+03 
       5.040933240388e-03       8.951273375665e+03 
       5.162535759947e-03       9.104280306456e+03 
       5.284357235852e-03       9.255040734544e+03 
       5.406384358951e-03       9.403558134394e+03 
       5.528604885928e-03       9.549831316791e+03 
       5.651007540563e-03       9.693861045549e+03 
       5.773581925274e-03       9.835654774023e+03 
       5.896318441787e-03       9.975216768220e+03 
       6.019208219924e-03       1.011255604440e+04 
       6.142243053592e-03       1.024768205334e+04 
       6.265415343199e-03       1.038060161336e+04 
       6.388718043770e-03       1.051133015016e+04 
       6.512144618156e-03       1.063988044996e+04 
       6.635688994790e-03       1.076626205605e+04 
       6.759345529484e-03       1.089048957464e+04 
       6.883108970869e-03       1.101258020197e+04 
       7.006974429057e-03       1.113254058364e+04 
       7.130937347233e-03       1.125039463493e+04 
       7.254993475829e-03       1.136615657161e+04 
       7.379138849064e-03       1.147984018287e+04 
       7.503369763566e-03       1.159145604424e+04 
       7.627682758903e-03       1.170103373715e+04 
       7.752074599819e-03       1.180857810578e+04 
       7.876542260001e-03       1.191410164961e+04 
       8.001082907249e-03       1.201763766764e+04 
       8.125693889895e-03       1.211919796697e+04 
       8.250372724364e-03       1.221879729417e+04 
       8.375117083770e-03       1.231644863945e+04 
       8.499924787441e-03       1.241218151512e+04 
       8.624793791300e-03       1.250600298160e+04 
       8.749722179018e-03       1.259793189624e+04 
       8.874708153873e-03       1.268798382628e+04 
       8.999750031245e-03       1.277617657387e+04 
       9.124846231701e-03       1.286254181991e+04 
       9.249995274615e-03       1.294708067314e+04 
       9.375195772273e-03       1.302981288720e+04 
       9.500446424428e-03       1.311075881646e+04 
       9.625746013265e-03       1.318993171372e+04 
       9.751093398737e-03       1.326735467262e+04 
       9.876487514253e-03       1.334304149418e+04 
       1.000192736268e-02       1.341700535478e+04 
       1.012741201262e-02       1.348926972954e+04 
       1.025294059501e-02       1.355984681332e+04 
       1.037851229988e-02       1.362875768885e+04 
       1.050412637342e-02       1.369600735502e+04 
       1.062978211522e-02       1.376162854930e+04 
       1.075547887571e-02       1.382563309439e+04 
       1.088121605378e-02       1.388802832463e+04 
       1.100699309458e-02       1.394883619052e+04 
       1.113280948744e-02       1.400807059080e+04 
       1.125866476396e-02       1.406575587060e+04 
       1.138455849626e-02       1.412189262384e+04 
       1.151049029527e-02       1.417651157780e+04 
       1.163645980924e-02       1.422962131035e+04 
       1.176246672226e-02       1.428123327883e+04 
       1.188851075295e-02       1.433137701137e+04 
       1.201459165321e-02       1.438005401128e+04 
       1.214070920707e-02       1.442728290777e+04 
       1.226686322961e-02       1.447308109901e+04 
       1.239305356596e-02       1.451746696078e+04 
       1.251928009038e-02       1.456044822940e+04 
       1.264554270538e-02       1.460204999159e+04 
       1.277184134097e-02       1.464227214901e+04 
       1.289817595385e-02       1.468114023453e+04 
       1.302454652681e-02       1.471866695378e+04 
       1.315095306802e-02       1.475486378132e+04 
       1.327739561051e-02       1.478975039114e+04 
       1.340387421161e-02       1.482333540569e+04 
       1.353038895245e-02       1.485562496725e+04 
       1.365374112507e-02       1.488588746569e+04 
       1.365693993753e-02       1.488665600419e+04 
       1.378352729429e-02       1.491641593902e+04 
       1.391015117276e-02       1.494494838782e+04 
       1.403681174522e-02       1.497224634791e+04 
       1.416350920586e-02       1.499832094328e+04 
       1.429024377057e-02       1.502321005365e+04 
       1.441701567666e-02       1.504689958252e+04 
       1.454382518265e-02       1.506941573770e+04 
       1.467067256809e-02       1.509076770570e+04 
       1.479755813344e-02       1.511097046040e+04 
       1.492448219987e-02       1.513003799092e+04 
       1.505144510923e-02       1.514799314362e+04 
       1.517844722390e-02       1.516482336337e+04 
       1.530548892679e-02       1.518057710925e+04 
       1.543257062128e-02       1.519523491170e+04 
       1.555969273119e-02       1.520882645695e+04 
       1.568685570080e-02       1.522135780379e+04 
       1.581405999491e-02       1.523284425348e+04 
       1.594130609881e-02       1.524330343371e+04 
       1.606859451845e-02       1.525274164691e+04 
       1.619592578041e-02       1.526116804358e+04 
       1.632330043209e-02       1.526860248236e+04 
       1.645071904182e-02       1.527505806517e+04 
       1.657818219894e-02       1.528053816323e+04 
       1.670569051404e-02       1.528506187047e+04 
       1.683324461908e-02       1.528864248760e+04 
       1.696084516758e-02       1.529128336618e+04 
       1.708849283487e-02       1.529300024105e+04 
       1.721618831828e-02       1.529381638733e+04 
       1.734393233738e-02       1.529372865707e+04 
       1.747172563426e-02       1.529275298335e+04 
       1.759956897380e-02       1.529090244111e+04 
       1.772746314395e-02       1.528819167735e+04 
       1.785540895603e-02       1.528461796167e+04 
       1.798340724509e-02       1.528022142114e+04 
       1.811145887023e-02       1.527498355298e+04 
       1.823956471493e-02       1.526892962125e+04 
       1.836772568748e-02       1.526207220993e+04 
       1.849594272132e-02       1.525441112928e+04 
       1.862421677549e-02       1.524597430743e+04 
       1.875254883503e-02       1.523675643223e+04 
       1.888093991143e-02       1.522678370083e+04 
       1.900939104308e-02       1.521605382318e+04 
       1.913790329576e-02       1.520458234654e+04 
       1.926647776316e-02       1.519238948098e+04 
       1.939511556735e-02       1.517946884844e+04 
       1.952381785932e-02       1.516583288271e+04 
       1.965258581958e-02       1.515150215580e+04 
       1.978142065867e-02       1.513650272317e+04 
       1.991032361781e-02       1.512080157524e+04 
       2.003929596947e-02       1.510443691074e+04 
       2.016833901800e-02       1.508742185734e+04 
       2.029745410034e-02       1.506976101020e+04 
       2.042664258664e-02       1.505145828263e+04 
       2.055590588096e-02       1.503251951356e+04 
       2.068524542204e-02       1.501297623959e+04 
       2.081466268399e-02       1.499282292819e+04 
       2.094415917710e-02       1.497207195466e+04 
       2.107373644860e-02       1.495072878840e+04 
       2.120339608349e-02       1.492881454941e+04 
       2.133313970539e-02       1.490632999876e+04 
       2.146296897743e-02       1.488329074524e+04 
       2.159288560309e-02       1.485969002739e+04 
       2.172289132719e-02       1.483555119080e+04 
       2.185298793680e-02       1.481089919013e+04 
       2.198317726226e-02       1.478569885170e+04 
       2.211346117817e-02       1.476000456750e+04 
       2.224384160444e-02       1.473379350589e+04 
       2.237432050741e-02       1.470710639451e+04 
       2.250489990091e-02       1.467992629207e+04 
       2.263558184744e-02       1.465227658369e+04 
       2.276636845936e-02       1.462415881221e+04 
       2.289726190010e-02       1.459555303330e+04 
       2.302826438544e-02       1.456652288655e+04 
       2.315937818478e-02       1.453704606337e+04 
       2.329060562252e-02       1.450712949805e+04 
       2.342194907944e-02       1.447677343476e+04 
       2.355341099411e-02       1.444612095680e+04 
       2.368499386438e-02       1.441499376401e+04 
       2.381670024890e-02       1.438330146757e+04 
       2.394853276872e-02       1.435144202333e+04 
       2.408049410886e-02       1.431880834876e+04 
       2.421258702004e-02       1.428632825916e+04 
       2.434481432038e-02       1.425315790573e+04 
       2.447717889721e-02       1.421978936139e+04 
       2.460968370890e-02       1.418585178160e+04 
       2.474233178679e-02       1.415165117413e+04 
       2.487512623713e-02       1.411716426233e+04 
       2.500807024316e-02       1.408242052644e+04 
       2.514116706717e-02       1.404722926615e+04 
       2.527442005274e-02       1.401189988354e+04 
       2.540783262693e-02       1.397617751419e+04 
       2.554140830266e-02       1.393969765934e+04 
       2.567515068109e-02       1.390340425308e+04 
       2.580906345412e-02       1.386675001268e+04 
       2.594315040699e-02       1.382969670728e+04 
       2.607741542092e-02       1.379264921865e+04 
       2.621186247592e-02       1.375505707370e+04 
       2.634649565360e-02       1.371735629346e+04 
       2.648131914018e-02       1.367952631795e+04 
       2.661633722956e-02       1.364108167592e+04 
       2.675155432646e-02       1.360265351143e+04 
       2.688697494980e-02       1.356414293648e+04 
       2.702260373605e-02       1.352500951736e+04 
       2.715844544282e-02       1.348581193498e+04 
       2.729450495252e-02       1.344647910284e+04 
       2.743078727620e-02       1.340680413806e+04 
       2.756729755751e-02       1.336703003168e+04 
       2.770404107680e-02       1.332708872046e+04 
       2.784102325542e-02       1.328713196861e+04 
       2.797824966012e-02       1.324659979721e+04 
       2.811572600772e-02       1.320603857639e+04 
       2.825345816984e-02       1.316518897228e+04 
       2.839145217793e-02       1.312427171927e+04 
       2.852971422842e-02       1.308321542747e+04 
       2.866825068814e-02       1.304231671103e+04 
       2.880706809989e-02       1.300059422714e+04 
       2.894617318833e-02       1.295912928804e+04 
       2.908557286599e-02       1.291733260392e+04 
       2.922527423967e-02       1.287550069458e+04 
       2.936528461699e-02       1.283356386240e+04 
       2.950561151327e-02       1.279180174220e+04 
       2.964626265871e-02       1.274935727736e+04 
       2.978724600587e-02       1.270693921186e+04 
       2.992856973743e-02       1.266448061929e+04 
       3.007024227437e-02       1.262201741749e+04 
       3.021227228447e-02       1.257918763155e+04 
       3.035466869112e-02       1.253665682810e+04 
       3.049744068270e-02       1.249352541073e+04 
       3.064059772216e-02       1.245050343531e+04 
       3.078414955727e-02       1.240753304984e+04 
       3.092810623112e-02       1.236429323554e+04 
       3.107247809328e-02       1.232108863557e+04 
       3.121727581141e-02       1.227769991748e+04 
       3.136251038344e-02       1.223438251060e+04 
       3.150819315026e-02       1.219079831482e+04 
       3.165433580918e-02       1.214738611303e+04 
       3.180095042788e-02       1.210373529666e+04 
       3.194804945918e-02       1.205994975098e+04 
       3.209564575643e-02       1.201624246187e+04 
       3.224375258975e-02       1.197239840875e+04 
       3.239238366311e-02       1.192857266918e+04 
       3.254155313219e-02       1.188457478620e+04 
       3.269127562329e-02       1.184048007528e+04 
       3.284156625309e-02       1.179658592836e+04 
       3.299244064961e-02       1.175260261314e+04 
       3.314391497415e-02       1.170844401995e+04 
       3.329600594452e-02       1.166422157836e+04 
       3.344873085946e-02       1.161996569725e+04 
       3.360210762447e-02       1.157571126213e+04 
       3.375615477904e-02       1.153156114000e+04 
       3.391089152544e-02       1.148739047750e+04 
       3.406633775914e-02       1.144276607387e+04 
       3.422251410098e-02       1.139838665925e+04 
       3.437944193124e-02       1.135417298505e+04 
       3.453714342572e-02       1.130978825667e+04 
       3.469564159391e-02       1.126525910931e+04 
       3.485496031959e-02       1.122073317361e+04 
       3.501512440381e-02       1.117611301355e+04 
       3.517615961053e-02       1.113173435509e+04 
       3.533809271520e-02       1.108706270614e+04 
       3.550095155638e-02       1.104249330874e+04 
       3.566476509059e-02       1.099785644892e+04 
       3.582956345090e-02       1.095321609016e+04 
       3.599537800921e-02       1.090856531816e+04 
       3.616224144278e-02       1.086408944368e+04 
       3.633018780522e-02       1.081941047667e+04 
       3.649925260238e-02       1.077445951095e+04 
       3.666947287342e-02       1.072975896138e+04 
       3.684088727768e-02       1.068498098934e+04 
       3.701353618767e-02       1.064042364809e+04 
       3.718746178881e-02       1.059534797285e+04 
       3.736270818650e-02       1.055055445905e+04 
       3.753932152108e-02       1.050574835856e+04 
       3.771735009151e-02       1.046087627538e+04 
       3.789684448856e-02       1.041599814342e+04 
       3.807785773819e-02       1.037104417066e+04 
       3.826044545641e-02       1.032641287547e+04 
       3.844466601636e-02       1.028107129351e+04 
       3.863058072912e-02       1.023618195735e+04 
       3.881825403931e-02       1.019128162014e+04 
       3.900775373718e-02       1.014605280479e+04 
       3.919915118867e-02       1.010070254709e+04 
       3.939252158552e-02       1.005560843551e+04 
       3.958794421722e-02       1.001026638495e+04 
       3.978550276748e-02       9.965197888460e+03 
       3.998528563753e-02       9.919776413214e+03 
       4.018738629947e-02       9.874283222701e+03 
       4.039190368285e-02       9.828972375662e+03 
       4.059894259839e-02       9.783268967517e+03 
       4.080861420303e-02       9.737574809998e+03 
       4.102103651135e-02       9.691949285990e+03 
       4.123633495873e-02       9.646286743758e+03 
       4.145464302275e-02       9.600344266085e+03 
       4.167610291004e-02       9.554351199615e+03 
       4.190086631689e-02       9.508119026519e+03 
       4.212909527328e-02       9.461951244940e+03 
       4.236096308119e-02       9.415622905911e+03 
       4.259665536020e-02       9.369071483996e+03 
       4.283637121485e-02       9.322575154978e+03 
       4.308032454123e-02       9.275914753506e+03 
       4.332874549257e-02       9.228817769975e+03 
       4.358188212733e-02       9.181696358154e+03 
       4.384000226720e-02       9.134597085117e+03 
       4.410339559722e-02       9.087039318328e+03 
       4.437237604613e-02       9.039436156268e+03 
       4.464728449199e-02       8.991270567204e+03 
       4.492849184662e-02       8.943027961446e+03 
       4.521640258286e-02       8.894636203415e+03 
       4.551145878105e-02       8.845819605853e+03 
       4.581414478669e-02       8.796956070735e+03 
       4.612499259042e-02       8.747265964453e+03 
       4.644458806457e-02       8.697622703610e+03 
       4.677357822008e-02       8.647408042752e+03 
       4.711267968374e-02       8.596987066962e+03 
       4.746268864115e-02       8.545655240850e+03 
       4.782449254793e-02       8.494148712563e+03 
       4.819908398384e-02       8.442085740252e+03 
       4.858757711544e-02       8.389367336066e+03 
       4.899122734876e-02       8.335973923889e+03 
       4.941145490069e-02       8.282081401534e+03 
       4.984987320553e-02       8.227374899780e+03 
       5.030832331237e-02       8.171630614426e+03 
       5.078891573332e-02       8.114833815849e+03 
       5.129408158764e-02       8.057204525452e+03 
       5.182663536882e-02       7.998466574375e+03 
       5.238985225398e-02       7.938065371918e+03 
       5.298756357876e-02       7.876480704173e+03 
       5.362427488643e-02       7.812958193597e+03 
       5.430531172732e-02       7.747215346794e+03 
       5.503699888707e-02       7.679418741133e+03 
       5.582687841361e-02       7.608579744273e+03 
       5.668396957533e-02       7.534861483674e+03 
       5.761906753035e-02       7.457036431840e+03 
