# Matter power spectrum P(k) at redshift z=0.35
# for k=1.04952e-05 to 58.9789 h/Mpc,
# number of wavenumbers equal to 575
#    1:k (h/Mpc)              2:P (Mpc/h)^3        
       1.049521996540e-05       3.220473039119e+01 
       2.312703140351e-05       6.912274041865e+01 
       3.580220203963e-05       1.054603510324e+02 
       4.855352787053e-05       1.415767510235e+02 
       6.141433211936e-05       1.776803503029e+02 
       7.441875102904e-05       2.139292258522e+02 
       8.760202852808e-05       2.504596160158e+02 
       1.010008235465e-04       2.873976581883e+02 
       1.146535337898e-04       3.248654426165e+02 
       1.286006398104e-04       3.629846846799e+02 
       1.428850732267e-04       4.018457677972e+02 
       1.575526129020e-04       4.416367203544e+02 
       1.726523127585e-04       4.824641867376e+02 
       1.882369646229e-04       5.244694964527e+02 
       2.043635989836e-04       5.678029136921e+02 
       2.210940257026e-04       6.126251016051e+02 
       2.384954154191e-04       6.591086127235e+02 
       2.566409204418e-04       7.074393817935e+02 
       2.756103311382e-04       7.578182372552e+02 
       2.954907599292e-04       8.104623985417e+02 
       3.163773396783e-04       8.656069276159e+02 
       3.383739161997e-04       9.235060765934e+02 
       3.615937054699e-04       9.844344465257e+02 
       3.861598746494e-04       1.048687850938e+03 
       4.122059921309e-04       1.116583729132e+03 
       4.398762757783e-04       1.188460940299e+03 
       4.693255511264e-04       1.264678691579e+03 
       5.007188142551e-04       1.345614371186e+03 
       5.342302801493e-04       1.431659972582e+03 
       5.700417908375e-04       1.523216851219e+03 
       6.083404640704e-04       1.620688536566e+03 
       6.493154893013e-04       1.724471464543e+03 
       6.931540295049e-04       1.834943587960e+03 
       7.400362688145e-04       1.952451100588e+03 
       7.901297556666e-04       2.077293764173e+03 
       8.435833195405e-04       2.209709651962e+03 
       9.005209670199e-04       2.349860445249e+03 
       9.610362618295e-04       2.497818586032e+03 
       1.025187732878e-03       2.653557674969e+03 
       1.092995810025e-03       2.816947300285e+03 
       1.164441652253e-03       2.987753116983e+03 
       1.239468023948e-03       3.165615680027e+03 
       1.317982131218e-03       3.350125961997e+03 
       1.365374112507e-03       3.460707025680e+03 
       1.399860102217e-03       3.540801251653e+03 
       1.484952629637e-03       3.737091517500e+03 
       1.573091217505e-03       3.938409180533e+03 
       1.664094490714e-03       4.144147598629e+03 
       1.757774114867e-03       4.353696152344e+03 
       1.853940004620e-03       4.566455163275e+03 
       1.952404638443e-03       4.781845905896e+03 
       2.052986422001e-03       4.999318848458e+03 
       2.155512137086e-03       5.218359419530e+03 
       2.259818574702e-03       5.438490687785e+03 
       2.365753482517e-03       5.659276025811e+03 
       2.473175965450e-03       5.880316717248e+03 
       2.581956471182e-03       6.101255136258e+03 
       2.691976476543e-03       6.321767716291e+03 
       2.803127971240e-03       6.541566189079e+03 
       2.915312815527e-03       6.760394404356e+03 
       3.028442030286e-03       6.978023806438e+03 
       3.142435062419e-03       7.194254974066e+03 
       3.257219055803e-03       7.408908504509e+03 
       3.372728148150e-03       7.621829982400e+03 
       3.488902806543e-03       7.832881436947e+03 
       3.605689208915e-03       8.041945987609e+03 
       3.723038674752e-03       8.248917444763e+03 
       3.840907145565e-03       8.453706487443e+03 
       3.959254713861e-03       8.656235544892e+03 
       4.078045198199e-03       8.856437227164e+03 
       4.197245761236e-03       9.054256331668e+03 
       4.316826567374e-03       9.249642024794e+03 
       4.436760476516e-03       9.442557141843e+03 
       4.557022770484e-03       9.632967726335e+03 
       4.677590908857e-03       9.820843533377e+03 
       4.798444311143e-03       1.000616760962e+04 
       4.919564162495e-03       1.018892003819e+04 
       5.040933240388e-03       1.036909072437e+04 
       5.162535759947e-03       1.054667104068e+04 
       5.284357235852e-03       1.072165293937e+04 
       5.406384358951e-03       1.089403810274e+04 
       5.528604885928e-03       1.106382208800e+04 
       5.651007540563e-03       1.123101184088e+04 
       5.773581925274e-03       1.139561399640e+04 
       5.896318441787e-03       1.155763086939e+04 
       6.019208219924e-03       1.171707287640e+04 
       6.142243053592e-03       1.187395229940e+04 
       6.265415343199e-03       1.202827491435e+04 
       6.388718043770e-03       1.218005899947e+04 
       6.512144618156e-03       1.232931909954e+04 
       6.635688994790e-03       1.247606602806e+04 
       6.759345529484e-03       1.262031644812e+04 
       6.883108970869e-03       1.276209036401e+04 
       7.006974429057e-03       1.290139642648e+04 
       7.130937347233e-03       1.303826002477e+04 
       7.254993475829e-03       1.317269874466e+04 
       7.379138849064e-03       1.330472944257e+04 
       7.503369763566e-03       1.343436268030e+04 
       7.627682758903e-03       1.356163417782e+04 
       7.752074599819e-03       1.368654612524e+04 
       7.876542260001e-03       1.380911860466e+04 
       8.001082907249e-03       1.392938208783e+04 
       8.125693889895e-03       1.404735902277e+04 
       8.250372724364e-03       1.416306055861e+04 
       8.375117083770e-03       1.427650224760e+04 
       8.499924787441e-03       1.438771786423e+04 
       8.624793791300e-03       1.449671632056e+04 
       8.749722179018e-03       1.460352050392e+04 
       8.874708153873e-03       1.470814757384e+04 
       8.999750031245e-03       1.481061702761e+04 
       9.124846231701e-03       1.491096724733e+04 
       9.249995274615e-03       1.500919865658e+04 
       9.375195772273e-03       1.510533482674e+04 
       9.500446424428e-03       1.519940085025e+04 
       9.625746013265e-03       1.529140728869e+04 
       9.751093398737e-03       1.538138326568e+04 
       9.876487514253e-03       1.546934693217e+04 
       1.000192736268e-02       1.555531363590e+04 
       1.012741201262e-02       1.563930341208e+04 
       1.025294059501e-02       1.572133381934e+04 
       1.037851229988e-02       1.580143795783e+04 
       1.050412637342e-02       1.587961047221e+04 
       1.062978211522e-02       1.595589216511e+04 
       1.075547887571e-02       1.603029182781e+04 
       1.088121605378e-02       1.610283170545e+04 
       1.100699309458e-02       1.617353346488e+04 
       1.113280948744e-02       1.624240397100e+04 
       1.125866476396e-02       1.630947678796e+04 
       1.138455849626e-02       1.637475647774e+04 
       1.151049029527e-02       1.643826878169e+04 
       1.163645980924e-02       1.650003401548e+04 
       1.176246672226e-02       1.656006470340e+04 
       1.188851075295e-02       1.661838296201e+04 
       1.201459165321e-02       1.667500243486e+04 
       1.214070920707e-02       1.672994195472e+04 
       1.226686322961e-02       1.678321690950e+04 
       1.239305356596e-02       1.683485488387e+04 
       1.251928009038e-02       1.688486506348e+04 
       1.264554270538e-02       1.693325982713e+04 
       1.277184134097e-02       1.698005896493e+04 
       1.289817595385e-02       1.702528584236e+04 
       1.302454652681e-02       1.706895549779e+04 
       1.315095306802e-02       1.711108418300e+04 
       1.327739561051e-02       1.715169488128e+04 
       1.340387421161e-02       1.719079573324e+04 
       1.353038895245e-02       1.722839357958e+04 
       1.365374112507e-02       1.726363495075e+04 
       1.365693993753e-02       1.726452964065e+04 
       1.378352729429e-02       1.729920071363e+04 
       1.391015117276e-02       1.733242284569e+04 
       1.403681174522e-02       1.736422478615e+04 
       1.416350920586e-02       1.739461447334e+04 
       1.429024377057e-02       1.742360500728e+04 
       1.441701567666e-02       1.745121055188e+04 
       1.454382518265e-02       1.747746501889e+04 
       1.467067256809e-02       1.750236372929e+04 
       1.479755813344e-02       1.752592608499e+04 
       1.492448219987e-02       1.754817370660e+04 
       1.505144510923e-02       1.756911149166e+04 
       1.517844722390e-02       1.758877346211e+04 
       1.530548892679e-02       1.760716347462e+04 
       1.543257062128e-02       1.762428875650e+04 
       1.555969273119e-02       1.764017790565e+04 
       1.568685570080e-02       1.765482819846e+04 
       1.581405999491e-02       1.766826715488e+04 
       1.594130609881e-02       1.768051472933e+04 
       1.606859451845e-02       1.769157716907e+04 
       1.619592578041e-02       1.770146757018e+04 
       1.632330043209e-02       1.771020495570e+04 
       1.645071904182e-02       1.771780461299e+04 
       1.657818219894e-02       1.772426527810e+04 
       1.670569051404e-02       1.772963293882e+04 
       1.683324461908e-02       1.773388909149e+04 
       1.696084516758e-02       1.773706083884e+04 
       1.708849283487e-02       1.773916294215e+04 
       1.721618831828e-02       1.774020727747e+04 
       1.734393233738e-02       1.774020414859e+04 
       1.747172563426e-02       1.773918402239e+04 
       1.759956897380e-02       1.773713821646e+04 
       1.772746314395e-02       1.773408804023e+04 
       1.785540895603e-02       1.773005167848e+04 
       1.798340724509e-02       1.772503760763e+04 
       1.811145887023e-02       1.771905483213e+04 
       1.823956471493e-02       1.771213193535e+04 
       1.836772568748e-02       1.770427021669e+04 
       1.849594272132e-02       1.769547867435e+04 
       1.862421677549e-02       1.768578460015e+04 
       1.875254883503e-02       1.767518220705e+04 
       1.888093991143e-02       1.766369767882e+04 
       1.900939104308e-02       1.765134029461e+04 
       1.913790329576e-02       1.763811013447e+04 
       1.926647776316e-02       1.762406450367e+04 
       1.939511556735e-02       1.760915816327e+04 
       1.952381785932e-02       1.759342634278e+04 
       1.965258581958e-02       1.757689733141e+04 
       1.978142065867e-02       1.755956562403e+04 
       1.991032361781e-02       1.754143653838e+04 
       2.003929596947e-02       1.752253439622e+04 
       2.016833901800e-02       1.750287224004e+04 
       2.029745410034e-02       1.748246700904e+04 
       2.042664258664e-02       1.746129010620e+04 
       2.055590588096e-02       1.743943212603e+04 
       2.068524542204e-02       1.741681976445e+04 
       2.081466268399e-02       1.739351759387e+04 
       2.094415917710e-02       1.736951601370e+04 
       2.107373644860e-02       1.734483319855e+04 
       2.120339608349e-02       1.731948409990e+04 
       2.133313970539e-02       1.729347321658e+04 
       2.146296897743e-02       1.726679897492e+04 
       2.159288560309e-02       1.723950350470e+04 
       2.172289132719e-02       1.721159487077e+04 
       2.185298793680e-02       1.718303819974e+04 
       2.198317726226e-02       1.715387938150e+04 
       2.211346117817e-02       1.712412889553e+04 
       2.224384160444e-02       1.709378951677e+04 
       2.237432050741e-02       1.706289928529e+04 
       2.250489990091e-02       1.703142653100e+04 
       2.263558184744e-02       1.699941149013e+04 
       2.276636845936e-02       1.696682701185e+04 
       2.289726190010e-02       1.693375306588e+04 
       2.302826438544e-02       1.690011194329e+04 
       2.315937818478e-02       1.686596402666e+04 
       2.329060562252e-02       1.683132542928e+04 
       2.342194907944e-02       1.679617228043e+04 
       2.355341099411e-02       1.676055362710e+04 
       2.368499386438e-02       1.672457593866e+04 
       2.381670024890e-02       1.668796857403e+04 
       2.394853276872e-02       1.665093878626e+04 
       2.408049410886e-02       1.661332014058e+04 
       2.421258702004e-02       1.657540040593e+04 
       2.434481432038e-02       1.653693462484e+04 
       2.447717889721e-02       1.649820685261e+04 
       2.460968370890e-02       1.645914215213e+04 
       2.474233178679e-02       1.641949203257e+04 
       2.487512623713e-02       1.637953836409e+04 
       2.500807024316e-02       1.633919208960e+04 
       2.514116706717e-02       1.629857964850e+04 
       2.527442005274e-02       1.625756705852e+04 
       2.540783262693e-02       1.621611836170e+04 
       2.554140830266e-02       1.617438880351e+04 
       2.567515068109e-02       1.613195569367e+04 
       2.580906345412e-02       1.608949671435e+04 
       2.594315040699e-02       1.604657814503e+04 
       2.607741542092e-02       1.600343507061e+04 
       2.621186247592e-02       1.595997725150e+04 
       2.634649565360e-02       1.591634456392e+04 
       2.648131914018e-02       1.587208536495e+04 
       2.661633722956e-02       1.582776888759e+04 
       2.675155432646e-02       1.578325584341e+04 
       2.688697494980e-02       1.573847743579e+04 
       2.702260373605e-02       1.569323547369e+04 
       2.715844544282e-02       1.564797010243e+04 
       2.729450495252e-02       1.560223106337e+04 
       2.743078727620e-02       1.555635077194e+04 
       2.756729755751e-02       1.551034703793e+04 
       2.770404107680e-02       1.546380551067e+04 
       2.784102325542e-02       1.541720280704e+04 
       2.797824966012e-02       1.537029892191e+04 
       2.811572600772e-02       1.532342094173e+04 
       2.825345816984e-02       1.527619218937e+04 
       2.839145217793e-02       1.522871785586e+04 
       2.852971422842e-02       1.518113145871e+04 
       2.866825068814e-02       1.513328609732e+04 
       2.880706809989e-02       1.508535587147e+04 
       2.894617318833e-02       1.503716021249e+04 
       2.908557286599e-02       1.498883845644e+04 
       2.922527423967e-02       1.494031363568e+04 
       2.936528461699e-02       1.489173155978e+04 
       2.950561151327e-02       1.484299738849e+04 
       2.964626265871e-02       1.479397997118e+04 
       2.978724600587e-02       1.474508015703e+04 
       2.992856973743e-02       1.469565363477e+04 
       3.007024227437e-02       1.464629100094e+04 
       3.021227228447e-02       1.459679184874e+04 
       3.035466869112e-02       1.454721228967e+04 
       3.049744068270e-02       1.449747735614e+04 
       3.064059772216e-02       1.444758912083e+04 
       3.078414955727e-02       1.439769799920e+04 
       3.092810623112e-02       1.434763488460e+04 
       3.107247809328e-02       1.429746069760e+04 
       3.121727581141e-02       1.424715384894e+04 
       3.136251038344e-02       1.419679061663e+04 
       3.150819315026e-02       1.414644795463e+04 
       3.165433580918e-02       1.409589668438e+04 
       3.180095042788e-02       1.404531627034e+04 
       3.194804945918e-02       1.399464436349e+04 
       3.209564575643e-02       1.394384052145e+04 
       3.224375258975e-02       1.389304718029e+04 
       3.239238366311e-02       1.384220279936e+04 
       3.254155313219e-02       1.379125529810e+04 
       3.269127562329e-02       1.374025374675e+04 
       3.284156625309e-02       1.368917275212e+04 
       3.299244064961e-02       1.363806562062e+04 
       3.314391497415e-02       1.358683334154e+04 
       3.329600594452e-02       1.353566018096e+04 
       3.344873085946e-02       1.348429207319e+04 
       3.360210762447e-02       1.343311154885e+04 
       3.375615477904e-02       1.338171173417e+04 
       3.391089152544e-02       1.333037594078e+04 
       3.406633775914e-02       1.327893961475e+04 
       3.422251410098e-02       1.322735599549e+04 
       3.437944193124e-02       1.317584295680e+04 
       3.453714342572e-02       1.312448673233e+04 
       3.469564159391e-02       1.307277461221e+04 
       3.485496031959e-02       1.302119054987e+04 
       3.501512440381e-02       1.296962239940e+04 
       3.517615961053e-02       1.291793101250e+04 
       3.533809271520e-02       1.286630425830e+04 
       3.550095155638e-02       1.281458583953e+04 
       3.566476509059e-02       1.276280768591e+04 
       3.582956345090e-02       1.271104509747e+04 
       3.599537800921e-02       1.265937965339e+04 
       3.616224144278e-02       1.260751832326e+04 
       3.633018780522e-02       1.255572891233e+04 
       3.649925260238e-02       1.250393396092e+04 
       3.666947287342e-02       1.245223538449e+04 
       3.684088727768e-02       1.240004050281e+04 
       3.701353618767e-02       1.234820173804e+04 
       3.718746178881e-02       1.229641307974e+04 
       3.736270818650e-02       1.224421724346e+04 
       3.753932152108e-02       1.219212599198e+04 
       3.771735009151e-02       1.214018425364e+04 
       3.789684448856e-02       1.208807571644e+04 
       3.807785773819e-02       1.203596925503e+04 
       3.826044545641e-02       1.198410869110e+04 
       3.844466601636e-02       1.193190311110e+04 
       3.863058072912e-02       1.187948821987e+04 
       3.881825403931e-02       1.182717191757e+04 
       3.900775373718e-02       1.177488202256e+04 
       3.919915118867e-02       1.172254297596e+04 
       3.939252158552e-02       1.167031964789e+04 
       3.958794421722e-02       1.161762330882e+04 
       3.978550276748e-02       1.156509591249e+04 
       3.998528563753e-02       1.151247154275e+04 
       4.018738629947e-02       1.145984436758e+04 
       4.039190368285e-02       1.140731797817e+04 
       4.059894259839e-02       1.135450970711e+04 
       4.080861420303e-02       1.130159590599e+04 
       4.102103651135e-02       1.124837656624e+04 
       4.123633495873e-02       1.119550089517e+04 
       4.145464302275e-02       1.114200798536e+04 
       4.167610291004e-02       1.108869065821e+04 
       4.190086631689e-02       1.103549375924e+04 
       4.212909527328e-02       1.098170538119e+04 
       4.236096308119e-02       1.092826693447e+04 
       4.259665536020e-02       1.087427679022e+04 
       4.283637121485e-02       1.082001094761e+04 
       4.308032454123e-02       1.076589043466e+04 
       4.332874549257e-02       1.071142544458e+04 
       4.358188212733e-02       1.065680801730e+04 
       4.384000226720e-02       1.060215633426e+04 
       4.410339559722e-02       1.054702884103e+04 
       4.437237604613e-02       1.049153169576e+04 
       4.464728449199e-02       1.043600622217e+04 
       4.492849184662e-02       1.038006040677e+04 
       4.521640258286e-02       1.032387472965e+04 
       4.551145878105e-02       1.026745384645e+04 
       4.581414478669e-02       1.021071010696e+04 
       4.612499259042e-02       1.015326545932e+04 
       4.644458806457e-02       1.009562242371e+04 
       4.677357822008e-02       1.003742817366e+04 
       4.711267968374e-02       9.978813644371e+03 
       4.746268864115e-02       9.919878742819e+03 
       4.782449254793e-02       9.859932577233e+03 
       4.819908398384e-02       9.799669041889e+03 
       4.858757711544e-02       9.738525337632e+03 
       4.899122734876e-02       9.676825280133e+03 
       4.941145490069e-02       9.614192063916e+03 
       4.984987320553e-02       9.550757078058e+03 
       5.030832331237e-02       9.486404904055e+03 
       5.078891573332e-02       9.420866756917e+03 
       5.129408158764e-02       9.353927890520e+03 
       5.182663536882e-02       9.285787637636e+03 
       5.238985225398e-02       9.216158924380e+03 
       5.298756357877e-02       9.144867888765e+03 
       5.362427488643e-02       9.071319400928e+03 
       5.430531172732e-02       8.995656080535e+03 
       5.503699888707e-02       8.917233816278e+03 
       5.582687841361e-02       8.835658635791e+03 
       5.668396957533e-02       8.750229650175e+03 
       5.761906753035e-02       8.660311027349e+03 
