# dimensionless total lensed [l(l+1)/2pi] C_l's
# for l=2 to 2500, i.e. number of multipoles equal to 2499
#
# -> if you prefer output in CAMB/HealPix/LensPix units/order, set 'format' to 'camb' in input file
# -> if you don't want to see such a header, set 'headers' to 'no' in input file
# -> for CMB lensing (phi), these are C_l^phi-phi for the lensing potential.
#    Remember the conversion factors:
#    C_l^dd (deflection) = l(l+1) C_l^phi-phi
#    C_l^gg (shear/convergence) = 1/4 (l(l+1))^2 C_l^phi-phi
#
# 1:l     2:TT                     3:EE                     4:TE                     5:BB                     6:phiphi                 7:TPhi                   8:Ephi               
    2       1.401025835189e-10       5.530646996958e-15       3.979250500026e-13       2.587453699501e-19       8.337566017926e-09       4.719105434057e-10      -2.111622627365e-12 
    3       1.322641953099e-10       7.539256373871e-15       4.602018204080e-13       5.176092933362e-19       5.112636570693e-09       3.366805967606e-10      -1.661906861121e-12 
    4       1.246241272023e-10       6.956004628299e-15       4.413369983912e-13       8.629426234014e-19       3.550862254440e-09       2.559735649213e-10      -1.144944681230e-12 
    5       1.187755049956e-10       4.958626785925e-15       3.837704832073e-13       1.294895222915e-18       2.650257390080e-09       2.027272660285e-10      -6.895218224280e-13 
    6       1.146454700783e-10       2.919897285362e-15       3.136965053883e-13       1.813647583553e-18       2.070591671116e-09       1.652645351572e-10      -3.353603112288e-13 
    7       1.119356829938e-10       1.567199447267e-15       2.473991907233e-13       2.419406610648e-18       1.670957701364e-09       1.377515803289e-10      -9.153495297250e-14 
    8       1.102549316956e-10       9.276527801341e-16       1.931874952026e-13       3.112400890626e-18       1.381434699862e-09       1.168416698349e-10       5.076773033068e-14 
    9       1.093448311028e-10       6.998346146830e-16       1.542211234436e-13       3.892875598136e-18       1.163625690994e-09       1.005055670390e-10       1.107997987773e-13 
   10       1.090341902408e-10       6.037751997312e-16       1.301592288394e-13       4.761087209987e-18       9.950618447362e-10       8.751468783761e-11       1.127747226224e-13 
   11       1.091826591956e-10       5.186742463631e-16       1.186534991326e-13       5.717298196856e-18       8.519832468512e-10       7.778442065735e-11       8.149116300951e-14 
   12       1.096539066480e-10       4.431227405999e-16       1.165228789727e-13       6.761771861295e-18       7.457213334363e-10       6.890213699036e-11       3.746558574800e-14 
   13       1.104139243300e-10       4.036476851395e-16       1.204819052592e-13       7.894767481841e-18       6.583639451012e-10       6.160160815527e-11      -3.426316596180e-15 
   14       1.113719738762e-10       4.033351709587e-16       1.276502141680e-13       9.116535908530e-18       5.855845176236e-10       5.545074191363e-11      -3.232428599894e-14 
   15       1.124804380026e-10       4.247294743001e-16       1.360168094834e-13       1.042731573533e-17       5.242470028752e-10       5.003201253773e-11      -4.645294365950e-14 
   16       1.137460500457e-10       4.533607076817e-16       1.444877593588e-13       1.182733015072e-17       4.720291947512e-10       4.541673830847e-11      -4.698198277641e-14 
   17       1.151562034762e-10       4.899173061762e-16       1.526076949678e-13       1.331678454001e-17       4.271792184015e-10       4.142230434748e-11      -3.817280461219e-14 
   18       1.166319603490e-10       5.454258390783e-16       1.603706799389e-13       1.489586453165e-17       3.882092095677e-10       3.789483889263e-11      -2.542260073235e-14 
   19       1.181942884949e-10       6.261046556928e-16       1.681290654074e-13       1.656473695702e-17       3.545026307534e-10       3.479850681372e-11      -1.276335616252e-14 
   20       1.198460990011e-10       7.348240363874e-16       1.763462277358e-13       1.832354600768e-17       3.247853595704e-10       3.204791304043e-11      -4.027360931669e-15 
   21       1.215799545755e-10       8.692545783293e-16       1.852170386160e-13       2.017241909887e-17       2.985976801188e-10       2.962878399828e-11      -2.753467167658e-16 
   22       1.233562847953e-10       1.024799624968e-15       1.947750529352e-13       2.211146269702e-17       2.753163965126e-10       2.750363164448e-11      -1.231169784500e-15 
   23       1.251866019164e-10       1.201170983048e-15       2.047914207967e-13       2.414077068950e-17       2.546351840729e-10       2.561075656218e-11      -5.529942013465e-15 
   24       1.270754658252e-10       1.398968545046e-15       2.148649963056e-13       2.626041947411e-17       2.360871118381e-10       2.386230167483e-11      -1.110069093199e-14 
   25       1.290137016475e-10       1.617207363660e-15       2.245424054617e-13       2.847047678630e-17       2.194244669049e-10       2.225902074661e-11      -1.616655432180e-14 
   26       1.309756739478e-10       1.854517873182e-15       2.333385998116e-13       3.077099855710e-17       2.043249564944e-10       2.081411111419e-11      -1.909380357141e-14 
   27       1.329703776335e-10       2.111941360304e-15       2.410264738768e-13       3.316204390977e-17       1.907127472696e-10       1.952041213267e-11      -1.968445722742e-14 
   28       1.350029264070e-10       2.391490362635e-15       2.474537349219e-13       3.564366407813e-17       1.784253323080e-10       1.834574271557e-11      -1.832038126642e-14 
   29       1.370650294895e-10       2.695421300577e-15       2.525101768272e-13       3.821590312255e-17       1.671673537718e-10       1.724618121916e-11      -1.559178321589e-14 
   30       1.391624335988e-10       3.025781104879e-15       2.562867293266e-13       4.087881744311e-17       1.568783777583e-10       1.622368482516e-11      -1.224122961841e-14 
   31       1.412947689913e-10       3.384713249490e-15       2.589876096360e-13       4.363246450776e-17       1.474834401408e-10       1.528898570124e-11      -9.231284277243e-15 
   32       1.434530086839e-10       3.774266368236e-15       2.608295937837e-13       4.647690135251e-17       1.388356033049e-10       1.444489091577e-11      -7.513180992487e-15 
   33       1.456417083394e-10       4.195266506275e-15       2.618092184977e-13       4.941219505939e-17       1.308888744546e-10       1.368227672700e-11      -7.098086435280e-15 
   34       1.478626891464e-10       4.648010705560e-15       2.618510286174e-13       5.243841732623e-17       1.235739938081e-10       1.298100104374e-11      -7.639914345465e-15 
   35       1.501117766957e-10       5.132711748861e-15       2.608614530494e-13       5.555564145789e-17       1.167833903239e-10       1.231751688605e-11      -8.717687346412e-15 
   36       1.523915001363e-10       5.650092939994e-15       2.587101065667e-13       5.876393865624e-17       1.105001515568e-10       1.169100738110e-11      -1.001160353682e-14 
   37       1.547012436521e-10       6.200982537528e-15       2.552393514783e-13       6.206338165548e-17       1.047052067827e-10       1.110542566465e-11      -1.117628066202e-14 
   38       1.570328675196e-10       6.786150851013e-15       2.502670040626e-13       6.545404657562e-17       9.933831080497e-11       1.056223130253e-11      -1.178745848064e-14 
   39       1.593754290578e-10       7.406325194144e-15       2.436254779784e-13       6.893600701697e-17       9.431993622675e-11       1.006052292934e-11      -1.147805619945e-14 
   40       1.617332169350e-10       8.062251097971e-15       2.352995535483e-13       7.250931226164e-17       8.963518425739e-11       9.598140627027e-12      -1.041485869601e-14 
   41       1.641125344941e-10       8.754644936048e-15       2.253326385416e-13       7.617400278140e-17       8.527211690416e-11       9.170491993905e-12      -8.975631017720e-15 
   42       1.665163436236e-10       9.484173862693e-15       2.137912601911e-13       7.993011636190e-17       8.119670649041e-11       8.769950772821e-12      -7.627348814109e-15 
   43       1.689454031369e-10       1.025145950738e-14       2.007448492611e-13       8.377767806403e-17       7.736552769480e-11       8.388230225666e-12      -6.812228591495e-15 
   44       1.714030036296e-10       1.105709698775e-14       1.861943160098e-13       8.771666594264e-17       7.377296721414e-11       8.024952712571e-12      -6.550118260742e-15 
   45       1.738910717510e-10       1.190163716204e-14       1.701235119130e-13       9.174703494096e-17       7.041560035871e-11       7.681350036567e-12      -6.721547142127e-15 
   46       1.764085086521e-10       1.278557839766e-14       1.525188802913e-13       9.586872572530e-17       6.727801041374e-11       7.357812945708e-12      -7.174575546206e-15 
   47       1.789509083648e-10       1.370936421735e-14       1.333694589079e-13       1.000816642181e-16       6.433185206251e-11       7.053818055980e-12      -7.722814681042e-15 
   48       1.815127960703e-10       1.467336438683e-14       1.126587751114e-13       1.043857550177e-16       6.154463185855e-11       6.768210678192e-12      -8.187469770839e-15 
   49       1.840957461063e-10       1.567781736602e-14       9.033782358351e-14       1.087808605547e-16       5.891116181271e-11       6.500318087472e-12      -8.542104001181e-15 
   50       1.867020684709e-10       1.672286759131e-14       6.634447581269e-14       1.132668152575e-16       5.642936304281e-11       6.249024516172e-12      -8.805279735695e-15 
   51       1.893323394419e-10       1.780857749778e-14       4.061052156252e-14       1.178434303932e-16       5.409089288097e-11       6.012389081907e-12      -9.000357590927e-15 
   52       1.919852485222e-10       1.893492432052e-14       1.306125782390e-14       1.225104932881e-16       5.188070406449e-11       5.787590868839e-12      -9.155762425778e-15 
   53       1.946590099828e-10       2.010183830013e-14      -1.637123346954e-14       1.272677766857e-16       4.978180410417e-11       5.571757950153e-12      -9.299659884801e-15 
   54       1.973563759314e-10       2.130933619607e-14      -4.770329774301e-14       1.321150714345e-16       4.779198487256e-11       5.364831143131e-12      -9.441766669226e-15 
   55       2.000806455662e-10       2.255741653047e-14      -8.093369503981e-14       1.370521608479e-16       4.591062664252e-11       5.167340932752e-12      -9.587326488647e-15 
   56       2.028341279278e-10       2.384601975933e-14      -1.160561214635e-13       1.420788109581e-16       4.413365670165e-11       4.979570533707e-12      -9.742321011214e-15 
   57       2.056180544462e-10       2.517502680991e-14      -1.530590462731e-13       1.471947701624e-16       4.245332658003e-11       4.801538034201e-12      -9.913501494736e-15 
   58       2.084324914874e-10       2.654425761807e-14      -1.919255489791e-13       1.523997688691e-16       4.085798927779e-11       4.632978539751e-12      -1.010842041780e-14 
   59       2.112769156944e-10       2.795347434604e-14      -2.326367930966e-13       1.576935427968e-16       3.933532378904e-11       4.473440700221e-12      -1.033222458827e-14 
   60       2.141522946562e-10       2.940239523039e-14      -2.751837594290e-13       1.630759099951e-16       3.788338907818e-11       4.322643022482e-12      -1.057709296316e-14 
   61       2.170593357301e-10       3.089068137069e-14      -3.195579545341e-13       1.685467111169e-16       3.650174800974e-11       4.180168892927e-12      -1.083039752040e-14 
   62       2.199978020734e-10       3.241793105444e-14      -3.657479748274e-13       1.741057877763e-16       3.518814200937e-11       4.045345776367e-12      -1.107764956026e-14 
   63       2.229664476587e-10       3.398367845311e-14      -4.137394669538e-13       1.797529829969e-16       3.393838514903e-11       3.917231237230e-12      -1.130242155609e-14 
   64       2.259629522875e-10       3.558739231810e-14      -4.635150881597e-13       1.854881416596e-16       3.274625823211e-11       3.794598960761e-12      -1.148626900496e-14 
   65       2.289850063160e-10       3.722842441293e-14      -5.150566209377e-13       1.913111283412e-16       3.160523638628e-11       3.676258519190e-12      -1.161265384464e-14 
   66       2.320339778061e-10       3.890584504491e-14      -5.683519264986e-13       1.972218842149e-16       3.051433499688e-11       3.562124780461e-12      -1.167985600411e-14 
   67       2.351119081405e-10       4.061857026799e-14      -6.233893974369e-13       2.032203830370e-16       2.947331616668e-11       3.452350662564e-12      -1.169066467632e-14 
   68       2.382203986298e-10       4.236540641382e-14      -6.801559536473e-13       2.093066157361e-16       2.848091084708e-11       3.347008816657e-12      -1.164865118822e-14 
   69       2.413605776862e-10       4.414504738175e-14      -7.386370629560e-13       2.154805913475e-16       2.753476421021e-11       3.246086983793e-12      -1.155820278330e-14 
   70       2.445330679986e-10       4.595607192887e-14      -7.988167617523e-13       2.217423379476e-16       2.663138102098e-11       3.149483351642e-12      -1.142455640424e-14 
   71       2.477379537059e-10       4.779694096006e-14      -8.606776756196e-13       2.280919035884e-16       2.576607100918e-11       3.057001911211e-12      -1.125383247551e-14 
   72       2.509751260960e-10       4.966612330203e-14      -9.241988232965e-13       2.345293473875e-16       2.493416218168e-11       2.968414256425e-12      -1.105255788043e-14 
   73       2.542454704689e-10       5.156250699752e-14      -9.893484947022e-13       2.410547087413e-16       2.413503177936e-11       2.883669034501e-12      -1.082605381481e-14 
   74       2.575498488313e-10       5.348506242927e-14      -1.056090036767e-12       2.476680338634e-16       2.336875394340e-11       2.802714495617e-12      -1.057979809158e-14 
   75       2.608887177853e-10       5.543272105070e-14      -1.124383919510e-12       2.543693858029e-16       2.263487508934e-11       2.725432539166e-12      -1.031993027177e-14 
   76       2.642621043452e-10       5.740437560941e-14      -1.194187706057e-12       2.611588451538e-16       2.193238822755e-11       2.651635587430e-12      -1.005327378483e-14 
   77       2.676695817531e-10       5.939888037063e-14      -1.265456022668e-12       2.680365107650e-16       2.125970728368e-11       2.581063459274e-12      -9.787358049063e-15 
   78       2.711102452960e-10       6.141505134066e-14      -1.338140528755e-12       2.750025004495e-16       2.061464141919e-11       2.513380243819e-12      -9.530440592000e-15 
   79       2.745826881213e-10       6.345166649030e-14      -1.412189886910e-12       2.820569516945e-16       1.999436935178e-11       2.448171174131e-12      -9.291529170760e-15 
   80       2.780855643010e-10       6.550741639198e-14      -1.487552027894e-12       2.892000040884e-16       1.939614407289e-11       2.385042317520e-12      -9.078413891366e-15 
   81       2.816194438381e-10       6.758074576659e-14      -1.564181464579e-12       2.964317415275e-16       1.881960443857e-11       2.323946462408e-12      -8.891321325681e-15 
   82       2.851852371722e-10       6.966998469781e-14      -1.642033199416e-12       3.037522412211e-16       1.826482002453e-11       2.264908384772e-12      -8.728193551299e-15 
   83       2.887836234422e-10       7.177339509021e-14      -1.721060554601e-12       3.111615914479e-16       1.773158441908e-11       2.207925854854e-12      -8.586565763671e-15 
   84       2.924150371773e-10       7.388916997449e-14      -1.801215184608e-12       3.186598919264e-16       1.721940306946e-11       2.152968414850e-12      -8.463551544617e-15 
   85       2.960796549882e-10       7.601543281265e-14      -1.882447088700e-12       3.262472541866e-16       1.672748112821e-11       2.099976156608e-12      -8.355828130833e-15 
   86       2.997773822591e-10       7.815023680317e-14      -1.964704623458e-12       3.339238019407e-16       1.625471129947e-11       2.048858499320e-12      -8.259621682402e-15 
   87       3.035078398377e-10       8.029156418621e-14      -2.047934515300e-12       3.416896714545e-16       1.579966168538e-11       1.999492967220e-12      -8.170692551302e-15 
   88       3.072703507277e-10       8.243732554879e-14      -2.132081873006e-12       3.495450119180e-16       1.536056363240e-11       1.951723967273e-12      -8.084320549917e-15 
   89       3.110642165587e-10       8.458542994139e-14      -2.217090242524e-12       3.574900047597e-16       1.493573522379e-11       1.905403016828e-12      -7.996343897457e-15 
   90       3.148896257110e-10       8.673400934752e-14      -2.302901753972e-12       3.655249242516e-16       1.452495438265e-11       1.860519322847e-12      -7.906494947443e-15 
   91       3.187468637893e-10       8.888122830979e-14      -2.389457020875e-12       3.736500871388e-16       1.412827977408e-11       1.817087529615e-12      -7.815563020104e-15 
   92       3.226360276818e-10       9.102521661406e-14      -2.476695112901e-12       3.818658351887e-16       1.374562878528e-11       1.775107499320e-12      -7.724388345450e-15 
   93       3.265570165929e-10       9.316406965540e-14      -2.564553569016e-12       3.901725358462e-16       1.337677189840e-11       1.734563710723e-12      -7.633863117222e-15 
   94       3.305095230758e-10       9.529584880419e-14      -2.652968410640e-12       3.985705828880e-16       1.302132706340e-11       1.695424657824e-12      -7.544932546835e-15 
   95       3.344930240650e-10       9.741858177210e-14      -2.741874154803e-12       4.070603970780e-16       1.267875407098e-11       1.657642248530e-12      -7.458595917326e-15 
   96       3.385067719089e-10       9.953026297819e-14      -2.831203827300e-12       4.156424268217e-16       1.234834892543e-11       1.621151203324e-12      -7.375907637300e-15 
   97       3.425497854020e-10       1.016288539148e-13      -2.920888975844e-12       4.243171488213e-16       1.202923821751e-11       1.585868453930e-12      -7.297978294876e-15 
   98       3.466208408177e-10       1.037122835139e-13      -3.010859683228e-12       4.330850687306e-16       1.172037349735e-11       1.551692541981e-12      -7.225975711633e-15 
   99       3.507187552665e-10       1.057784841235e-13      -3.101045313851e-12       4.419467203634e-16       1.142077288565e-11       1.518527039101e-12      -7.160810323909e-15 
  100       3.548433019503e-10       1.078255044615e-13      -3.191376845538e-12       4.509026617766e-16       1.113029711933e-11       1.486355892068e-12      -7.102138200994e-15 
  101       3.589944084902e-10       1.098514134157e-13      -3.281784893979e-12       4.599534798463e-16       1.084897348395e-11       1.455177682199e-12      -7.049218114019e-15 
  102       3.631718708106e-10       1.118542666473e-13      -3.372199030585e-12       4.690997922937e-16       1.057675578463e-11       1.424982249771e-12      -7.001211873089e-15 
  103       3.673753477150e-10       1.138321073891e-13      -3.462547804532e-12       4.783422483228e-16       1.031352171579e-11       1.395750383857e-12      -6.957181554889e-15 
  104       3.716043554616e-10       1.157829672426e-13      -3.552758764808e-12       4.876815292572e-16       1.005907023085e-11       1.367453512168e-12      -6.916086730300e-15 
  105       3.758582623397e-10       1.177048669763e-13      -3.642758482254e-12       4.971183491779e-16       9.813118911954e-12       1.340053390883e-12      -6.876781692005e-15 
  106       3.801362832453e-10       1.195958173232e-13      -3.732472571612e-12       5.066534555601e-16       9.575301339649e-12       1.313501794486e-12      -6.838012682106e-15 
  107       3.844374742565e-10       1.214538197780e-13      -3.821825713570e-12       5.162876299110e-16       9.345164462626e-12       1.287740205607e-12      -6.798415119730e-15 
