# dimensionless total [l(l+1)/2pi] C_l's
# for l=2 to 3000, i.e. number of multipoles equal to 2999
#
# -> if you prefer output in CAMB/HealPix/LensPix units/order, set 'format' to 'camb' in input file
# -> if you don't want to see such a header, set 'headers' to 'no' in input file
# -> for CMB lensing (phi), these are C_l^phi-phi for the lensing potential.
#    Remember the conversion factors:
#    C_l^dd (deflection) = l(l+1) C_l^phi-phi
#    C_l^gg (shear/convergence) = 1/4 (l(l+1))^2 C_l^phi-phi
#
# 1:l     2:TT                     3:EE                     4:TE                     5:BB                     6:phiphi                 7:TPhi                   8:Ephi               
    2       1.407979575024e-10       4.562551638997e-15       3.670720109692e-13       0.000000000000e+00       8.340512763106e-09       4.727522302118e-10      -1.918311069438e-12 
    3       1.330522893271e-10       5.533355142255e-15       4.053922282433e-13       0.000000000000e+00       5.139753228897e-09       3.367183888883e-10      -1.407872603301e-12 
    4       1.256284424466e-10       4.506176238267e-15       3.733578375336e-13       0.000000000000e+00       3.570612334747e-09       2.554555240947e-10      -8.791932886931e-13 
    5       1.200449046388e-10       2.823299935648e-15       3.126496851822e-13       0.000000000000e+00       2.663716155557e-09       2.019618850058e-10      -4.515762277374e-13 
    6       1.161812957761e-10       1.502983098829e-15       2.472556894123e-13       0.000000000000e+00       2.080133164295e-09       1.644522437319e-10      -1.531549345041e-13 
    7       1.137090336573e-10       8.109369131572e-16       1.908984249347e-13       0.000000000000e+00       1.677957148614e-09       1.370076119494e-10       2.167857915460e-14 
    8       1.122232378109e-10       5.428458011659e-16       1.491751196889e-13       0.000000000000e+00       1.386980176126e-09       1.162167914987e-10       9.653956242786e-14 
    9       1.114703998198e-10       4.363641426683e-16       1.227654771595e-13       0.000000000000e+00       1.168425354265e-09       1.000089195571e-10       1.026073210040e-13 
   10       1.112787132136e-10       3.625211885782e-16       1.094887224764e-13       0.000000000000e+00       9.993070263053e-10       8.712026084647e-11       7.112722429253e-14 
   11       1.115205887323e-10       3.053042511839e-16       1.059481056926e-13       0.000000000000e+00       8.553504459455e-10       7.748479979011e-11       2.863232644992e-14 
   12       1.120646088916e-10       2.775869161454e-16       1.088112361250e-13       0.000000000000e+00       7.486022206795e-10       6.862798621748e-11      -8.567893132158e-15 
   13       1.128827752054e-10       2.773319533494e-16       1.152871842801e-13       0.000000000000e+00       6.608529980148e-10       6.132883756813e-11      -3.102273231537e-14 
   14       1.138912038345e-10       2.928170398100e-16       1.233415179500e-13       0.000000000000e+00       5.877534480448e-10       5.516738350623e-11      -3.768464440925e-14 
   15       1.150458612284e-10       3.189695746974e-16       1.318904651858e-13       0.000000000000e+00       5.261510347078e-10       4.973532662663e-11      -3.269488174026e-14 
   16       1.163519150644e-10       3.599474446875e-16       1.405976492523e-13       0.000000000000e+00       4.737116077224e-10       4.511646722758e-11      -2.172514958326e-14 
   17       1.177999639086e-10       4.213235536691e-16       1.494997634801e-13       0.000000000000e+00       4.286744996648e-10       4.113051777121e-11      -1.052253874331e-14 
   18       1.193136433082e-10       5.043655524993e-16       1.588120226051e-13       0.000000000000e+00       3.895444354477e-10       3.762198564844e-11      -3.142550454198e-15 
   19       1.209145750729e-10       6.080449844954e-16       1.687219209578e-13       0.000000000000e+00       3.557017921462e-10       3.455141758356e-11      -6.319427643826e-16 
   20       1.226049580335e-10       7.302681037614e-16       1.793254064821e-13       0.000000000000e+00       3.258662639696e-10       3.182826481358e-11      -2.669544885977e-15 
   21       1.243781501648e-10       8.709560444546e-16       1.903902080645e-13       0.000000000000e+00       2.995758128851e-10       2.943377679742e-11      -7.402652522728e-15 
   22       1.261952249626e-10       1.030350500976e-15       2.014957757358e-13       0.000000000000e+00       2.762044362002e-10       2.732633638776e-11      -1.216635866639e-14 
   23       1.280679674126e-10       1.208187232962e-15       2.122523915880e-13       0.000000000000e+00       2.554443307786e-10       2.544315847647e-11      -1.550594258298e-14 
   24       1.300006588722e-10       1.404170109639e-15       2.222597461781e-13       0.000000000000e+00       2.368264673126e-10       2.369721044260e-11      -1.647704184827e-14 
   25       1.319844186932e-10       1.619868949908e-15       2.312999398327e-13       0.000000000000e+00       2.201019525818e-10       2.209281486871e-11      -1.539335428067e-14 
   26       1.339937051154e-10       1.857516332637e-15       2.392415442125e-13       0.000000000000e+00       2.049470485057e-10       2.064777019691e-11      -1.310967391779e-14 
   27       1.360374445168e-10       2.118852986505e-15       2.461138204355e-13       0.000000000000e+00       1.912855126197e-10       1.935628632677e-11      -1.038376299872e-14 
   28       1.381201458719e-10       2.405551026335e-15       2.520393147548e-13       0.000000000000e+00       1.789541299054e-10       1.818662883903e-11      -8.121372463916e-15 
   29       1.402325536549e-10       2.719249694257e-15       2.571613631062e-13       0.000000000000e+00       1.676563345691e-10       1.709510835568e-11      -7.208958382398e-15 
   30       1.423803773250e-10       3.061037967807e-15       2.614816675624e-13       0.000000000000e+00       1.573313942435e-10       1.608274447752e-11      -7.526955372135e-15 
   31       1.445632753868e-10       3.431752850308e-15       2.649599779604e-13       0.000000000000e+00       1.479040044800e-10       1.515869822028e-11      -8.533158539366e-15 
   32       1.467721653693e-10       3.832164726932e-15       2.675350807454e-13       0.000000000000e+00       1.392266247762e-10       1.432410783036e-11      -9.611196413037e-15 
   33       1.490122268573e-10       4.263210323844e-15       2.690550759254e-13       0.000000000000e+00       1.312530478828e-10       1.356922143158e-11      -1.046683144212e-14 
   34       1.512860671624e-10       4.725833462075e-15       2.693179760861e-13       0.000000000000e+00       1.239137234165e-10       1.287358147053e-11      -1.086696613425e-14 
   35       1.535901252231e-10       5.220925793594e-15       2.681291437640e-13       0.000000000000e+00       1.171006548254e-10       1.221349395439e-11      -1.061688218255e-14 
   36       1.559269482610e-10       5.749349232193e-15       2.654462272377e-13       0.000000000000e+00       1.107968412313e-10       1.158867338002e-11      -9.848046179363e-15 
   37       1.582955829703e-10       6.311913313712e-15       2.612843445490e-13       0.000000000000e+00       1.049831225858e-10       1.100397168908e-11      -8.833600759568e-15 
   38       1.606872756495e-10       6.909363489434e-15       2.556794261382e-13       0.000000000000e+00       9.959902198669e-11       1.046200287068e-11      -7.918429083296e-15 
   39       1.630903761305e-10       7.542421451529e-15       2.486724265350e-13       0.000000000000e+00       9.456471496554e-11       9.962946601722e-12      -7.429536909509e-15 
   40       1.655090586607e-10       8.211933639087e-15       2.402521815183e-13       0.000000000000e+00       8.986523433099e-11       9.504484355594e-12      -7.358434665411e-15 
   41       1.679496096933e-10       8.918765807482e-15       2.303953384386e-13       0.000000000000e+00       8.548858697557e-11       9.081424562463e-12      -7.578713142678e-15 
   42       1.704148735597e-10       9.663761470316e-15       2.190818697681e-13       0.000000000000e+00       8.140061614381e-11       8.685405982308e-12      -7.929002169962e-15 
   43       1.729054732674e-10       1.044770772060e-14       2.062873586406e-13       0.000000000000e+00       7.755773678096e-11       8.307435515130e-12      -8.249908020242e-15 
   44       1.754248467320e-10       1.127122259872e-14       1.919568673240e-13       0.000000000000e+00       7.395430570588e-11       7.947032058865e-12      -8.514022694705e-15 
   45       1.779751269879e-10       1.213483072715e-14       1.760230017275e-13       0.000000000000e+00       7.058687746681e-11       7.605517619127e-12      -8.732585588507e-15 
   46       1.805553925914e-10       1.303899020900e-14       1.584125350038e-13       0.000000000000e+00       6.743997576966e-11       7.283412175845e-12      -8.919962534381e-15 
   47       1.831613819684e-10       1.398408942492e-14       1.390459647101e-13       0.000000000000e+00       6.448515393641e-11       6.980363223301e-12      -9.093835579599e-15 
   48       1.857877295559e-10       1.497044356869e-14       1.178499923260e-13       0.000000000000e+00       6.168980448995e-11       6.695414880244e-12      -9.272128740605e-15 
   49       1.884360861285e-10       1.599829057298e-14       9.480015493561e-14       0.000000000000e+00       5.904871670066e-11       6.428069330203e-12      -9.462317705489e-15 
   50       1.911087967095e-10       1.706778853180e-14       6.988945004812e-14       0.000000000000e+00       5.655980048787e-11       6.177403530066e-12      -9.669432725673e-15 
   51       1.938064255032e-10       1.817901272432e-14       4.311667360398e-14       0.000000000000e+00       5.421468271309e-11       5.941703936294e-12      -9.899082208210e-15 
   52       1.965275989055e-10       1.933195239843e-14       1.448663644028e-14       0.000000000000e+00       5.199826504287e-11       5.718413369955e-12      -1.015747596099e-14 
   53       1.992704358507e-10       2.052656470638e-14      -1.599465021742e-14       0.000000000000e+00       4.989349813504e-11       5.504879993898e-12      -1.044769082790e-14 
   54       2.020376320251e-10       2.176296019794e-14      -4.833636999405e-14       0.000000000000e+00       4.789816321111e-11       5.300952661242e-12      -1.075728673096e-14 
   55       2.048324094123e-10       2.304125941972e-14      -8.255034477686e-14       0.000000000000e+00       4.601163516338e-11       5.106960335567e-12      -1.106754669497e-14 
   56       2.076569549934e-10       2.436153913650e-14      -1.186463673683e-13       0.000000000000e+00       4.422982555708e-11       4.922949330533e-12      -1.135682443538e-14 
   57       2.105123303118e-10       2.572383151114e-14      -1.566321959630e-13       0.000000000000e+00       4.254495920696e-11       4.748663806458e-12      -1.160041005175e-14 
   58       2.133983810396e-10       2.712812328443e-14      -1.965135486253e-13       0.000000000000e+00       4.094535075386e-11       4.583526266889e-12      -1.177039572115e-14 
   59       2.163143986583e-10       2.857426071816e-14      -2.382932138906e-13       0.000000000000e+00       3.941863907274e-11       4.426810905477e-12      -1.184308676583e-14 
   60       2.192614903387e-10       3.006164050868e-14      -2.819681539223e-13       0.000000000000e+00       3.796287506069e-11       4.278254951854e-12      -1.182354967237e-14 
   61       2.222406005654e-10       3.158944551728e-14      -3.275317176651e-13       0.000000000000e+00       3.657761847045e-11       4.137555081255e-12      -1.172653761703e-14 
   62       2.252517437978e-10       3.315672876318e-14      -3.749744308104e-13       0.000000000000e+00       3.526060243859e-11       4.004174345813e-12      -1.156956532239e-14 
   63       2.282939395305e-10       3.476240940897e-14      -4.242839603111e-13       0.000000000000e+00       3.400762727671e-11       3.877329208436e-12      -1.137303052623e-14 
   64       2.313651473541e-10       3.640526874600e-14      -4.754450788971e-13       0.000000000000e+00       3.281245426267e-11       3.755976576673e-12      -1.116033545026e-14 
   65       2.344632926263e-10       3.808410016838e-14      -5.284406209585e-13       0.000000000000e+00       3.166853823404e-11       3.639088847169e-12      -1.095316892425e-14 
   66       2.375897418188e-10       3.979820502901e-14      -5.832546651944e-13       0.000000000000e+00       3.057489041456e-11       3.526575866182e-12      -1.075591859705e-14 
   67       2.407464492787e-10       4.154699493108e-14      -6.398699645528e-13       0.000000000000e+00       2.953127104360e-11       3.418535623121e-12      -1.056816488420e-14 
   68       2.439348977750e-10       4.332984729319e-14      -6.982670067302e-13       0.000000000000e+00       2.853640638534e-11       3.314978650996e-12      -1.038921537771e-14 
   69       2.471560640660e-10       4.514610564208e-14      -7.584240064165e-13       0.000000000000e+00       2.758793395500e-11       3.215823116528e-12      -1.021809094864e-14 
   70       2.504103844666e-10       4.699507990544e-14      -8.203168975415e-13       0.000000000000e+00       2.668234774509e-11       3.120889910260e-12      -1.005351184964e-14 
   71       2.536977204158e-10       4.887604670470e-14      -8.839193255204e-13       0.000000000000e+00       2.581494345156e-11       3.029897736668e-12      -9.893883817469e-15 
   72       2.570177650148e-10       5.078816974297e-14      -9.492025530103e-13       0.000000000000e+00       2.498103516657e-11       2.942545110436e-12      -9.737816632166e-15 
   73       2.603714294998e-10       5.273024262683e-14      -1.016135173467e-12       0.000000000000e+00       2.417999755213e-11       2.858785477525e-12      -9.585825913198e-15 
   74       2.637596619170e-10       5.470089697846e-14      -1.084683328337e-12       0.000000000000e+00       2.341190418918e-11       2.778596276520e-12      -9.438934389009e-15 
   75       2.671830057811e-10       5.669867646099e-14      -1.154810779110e-12       0.000000000000e+00       2.267629955180e-11       2.701893835644e-12      -9.298166672573e-15 
   76       2.706415757114e-10       5.872203524699e-14      -1.226478897593e-12       0.000000000000e+00       2.197217326235e-11       2.628530447036e-12      -9.164547520485e-15 
   77       2.741350330662e-10       6.076933648695e-14      -1.299646656179e-12       0.000000000000e+00       2.129793434663e-11       2.558291441013e-12      -9.039100092042e-15 
   78       2.776625615789e-10       6.283885077771e-14      -1.374270618120e-12       0.000000000000e+00       2.065138548901e-11       2.490892260348e-12      -8.922844208331e-15 
   79       2.812228429921e-10       6.492875463098e-14      -1.450304927798e-12       0.000000000000e+00       2.002969728752e-11       2.425975534534e-12      -8.816794611315e-15 
   80       2.848146059852e-10       6.703720490161e-14      -1.527702173883e-12       0.000000000000e+00       1.943011486362e-11       2.363198609965e-12      -8.721614250028e-15 
   81       2.884384363402e-10       6.916258032756e-14      -1.606416172863e-12       0.000000000000e+00       1.885227565196e-11       2.302520083110e-12      -8.636508626414e-15 
   82       2.920952381338e-10       7.130327933778e-14      -1.686399653419e-12       0.000000000000e+00       1.829624901883e-11       2.243957920430e-12      -8.560135357800e-15 
   83       2.957856748307e-10       7.345764769518e-14      -1.767603432815e-12       0.000000000000e+00       1.776182766449e-11       2.187502190883e-12      -8.490924091251e-15 
   84       2.995101555359e-10       7.562397837181e-14      -1.849976423326e-12       0.000000000000e+00       1.724851544039e-11       2.133113815311e-12      -8.427068374274e-15 
   85       3.032688212463e-10       7.780051142394e-14      -1.933465638683e-12       0.000000000000e+00       1.675551516645e-11       2.080723315813e-12      -8.366517525515e-15 
   86       3.070615311023e-10       7.998543386723e-14      -2.018016200498e-12       0.000000000000e+00       1.628171644831e-11       2.030229565131e-12      -8.306968505458e-15 
   87       3.108878486393e-10       8.217687955186e-14      -2.103571344709e-12       0.000000000000e+00       1.582568349459e-11       1.981498536025e-12      -8.245857787120e-15 
   88       3.147470280399e-10       8.437292903766e-14      -2.190072428012e-12       0.000000000000e+00       1.538564293414e-11       1.934362050652e-12      -8.180353226756e-15 
   89       3.186383096167e-10       8.657163421010e-14      -2.277459483260e-12       0.000000000000e+00       1.495990836811e-11       1.888660331767e-12      -8.108075283667e-15 
   90       3.225618893503e-10       8.877109682573e-14      -2.365672971484e-12       0.000000000000e+00       1.454825690566e-11       1.844380032031e-12      -8.029408057181e-15 
   91       3.265180768180e-10       9.096940211522e-14      -2.454652317845e-12       0.000000000000e+00       1.415074712088e-11       1.801535653587e-12      -7.945537485119e-15 
   92       3.305069905131e-10       9.316459538174e-14      -2.544335401589e-12       0.000000000000e+00       1.376729597945e-11       1.760127087634e-12      -7.857757025367e-15 
   93       3.345285487292e-10       9.535468224671e-14      -2.634658570709e-12       0.000000000000e+00       1.339767319875e-11       1.720139020015e-12      -7.767470453155e-15 
   94       3.385824604447e-10       9.753762889564e-14      -2.725556656603e-12       0.000000000000e+00       1.304149560797e-11       1.681540336809e-12      -7.676194658326e-15 
   95       3.426682162073e-10       9.971136232385e-14      -2.816962988736e-12       0.000000000000e+00       1.269822150820e-11       1.644283529909e-12      -7.585562442623e-15 
   96       3.467850790178e-10       1.018737705823e-13      -2.908809409299e-12       0.000000000000e+00       1.236714503253e-11       1.608304102616e-12      -7.497325316958e-15 
   97       3.509320752154e-10       1.040227030234e-13      -3.001026287869e-12       0.000000000000e+00       1.204739050616e-11       1.573519975222e-12      -7.413356298696e-15 
   98       3.551079853613e-10       1.061559705468e-13      -3.093542536070e-12       0.000000000000e+00       1.173790680647e-11       1.539830890595e-12      -7.335652708927e-15 
   99       3.593116279562e-10       1.082713947179e-13      -3.186286247187e-12       0.000000000000e+00       1.143770954960e-11       1.507141430896e-12      -7.265851016980e-15 
  100       3.635427761489e-10       1.103669625318e-13      -3.279186686689e-12       0.000000000000e+00       1.114665898257e-11       1.475435072474e-12      -7.203686918361e-15 
  101       3.678013545415e-10       1.124406941290e-13      -3.372172612195e-12       0.000000000000e+00       1.086478230820e-11       1.444709564761e-12      -7.148321321911e-15 
  102       3.720871524445e-10       1.144905967057e-13      -3.465171695624e-12       0.000000000000e+00       1.059203308571e-11       1.414953950606e-12      -7.098805765743e-15 
  103       3.763998183112e-10       1.165146653518e-13      -3.558110545426e-12       0.000000000000e+00       1.032828859480e-11       1.386148258058e-12      -7.054079299929e-15 
  104       3.807388541709e-10       1.185108838896e-13      -3.650914728826e-12       0.000000000000e+00       1.007334719970e-11       1.358263192144e-12      -7.012965369207e-15 
  105       3.851036100633e-10       1.204772257115e-13      -3.743508794053e-12       0.000000000000e+00       9.826925713221e-12       1.331259826653e-12      -6.974168695674e-15 
  106       3.894932784722e-10       1.224116546184e-13      -3.835816292575e-12       0.000000000000e+00       9.588656760801e-12       1.305089295920e-12      -6.936272161489e-15 
  107       3.939068887591e-10       1.243121256576e-13      -3.927759801338e-12       0.000000000000e+00       9.358086144586e-12       1.279692486605e-12      -6.897733691563e-15 
