# dimensionless total [l(l+1)/2pi] C_l's
# for l=2 to 3000, i.e. number of multipoles equal to 2999
#
# -> if you prefer output in CAMB/HealPix/LensPix units/order, set 'format' to 'camb' in input file
# -> if you don't want to see such a header, set 'headers' to 'no' in input file
# -> for CMB lensing (phi), these are C_l^phi-phi for the lensing potential.
#    Remember the conversion factors:
#    C_l^dd (deflection) = l(l+1) C_l^phi-phi
#    C_l^gg (shear/convergence) = 1/4 (l(l+1))^2 C_l^phi-phi
#
# 1:l     2:TT                     3:EE                     4:TE                     5:BB                     6:phiphi                 7:TPhi                   8:Ephi               
    2       1.401020815150e-10       5.530388251543e-15       3.979250544516e-13       0.000000000000e+00       8.337566017926e-09       4.719105434057e-10      -2.111622627365e-12 
    3       1.322631935588e-10       7.538738764134e-15       4.602018402397e-13       0.000000000000e+00       5.112636570693e-09       3.366805967606e-10      -1.661906861121e-12 
    4       1.246224625736e-10       6.955141683499e-15       4.413370553922e-13       0.000000000000e+00       3.550862254440e-09       2.559735649213e-10      -1.144944681230e-12 
    5       1.187730172069e-10       4.957331883276e-15       3.837706131082e-13       0.000000000000e+00       2.650257390080e-09       2.027272660285e-10      -6.895218224280e-13 
    6       1.146420022738e-10       2.918083617613e-15       3.136967609231e-13       0.000000000000e+00       2.070591671116e-09       1.652645351572e-10      -3.353603112288e-13 
    7       1.119310822397e-10       1.564779993989e-15       2.473996444268e-13       0.000000000000e+00       1.670957701364e-09       1.377515803289e-10      -9.153495297250e-14 
    8       1.102490493842e-10       9.245402833844e-16       1.931882419087e-13       0.000000000000e+00       1.381434699862e-09       1.168416698349e-10       5.076773033068e-14 
    9       1.093375232569e-10       6.959415597141e-16       1.542222824538e-13       0.000000000000e+00       1.163625690994e-09       1.005055670390e-10       1.107997987773e-13 
   10       1.090253177160e-10       5.990138013464e-16       1.301609457441e-13       0.000000000000e+00       9.950618447362e-10       8.751468783761e-11       1.127747226224e-13 
   11       1.091720877803e-10       5.129564414507e-16       1.186559472715e-13       0.000000000000e+00       8.519832468512e-10       7.778442065735e-11       8.149116300951e-14 
   12       1.096415070644e-10       4.363601872985e-16       1.165262605329e-13       0.000000000000e+00       7.457213334363e-10       6.890213699036e-11       3.746558574800e-14 
   13       1.103995721423e-10       3.957517689797e-16       1.204864520151e-13       0.000000000000e+00       6.583639451012e-10       6.160160815527e-11      -3.426316596180e-15 
   14       1.113555493164e-10       3.942170182046e-16       1.276561878766e-13       0.000000000000e+00       5.855845176236e-10       5.545074191363e-11      -3.232428599894e-14 
   15       1.124618257254e-10       4.142999725755e-16       1.360245019519e-13       0.000000000000e+00       5.242470028752e-10       5.003201253773e-11      -4.645294365950e-14 
   16       1.137251388258e-10       4.415305338147e-16       1.444974922083e-13       0.000000000000e+00       4.720291947512e-10       4.541673830847e-11      -4.698198277641e-14 
   17       1.151328858647e-10       4.765969610331e-16       1.526198191200e-13       0.000000000000e+00       4.271792184015e-10       4.142230434748e-11      -3.817280461219e-14 
   18       1.166061322973e-10       5.305256890051e-16       1.603855748436e-13       0.000000000000e+00       3.882092095677e-10       3.789483889263e-11      -2.542260073235e-14 
   19       1.181658490058e-10       6.095349799397e-16       1.681471381026e-13       0.000000000000e+00       3.545026307534e-10       3.479850681372e-11      -1.276335616252e-14 
   20       1.198149497083e-10       7.164950801187e-16       1.763679115997e-13       0.000000000000e+00       3.247853595704e-10       3.204791304043e-11      -4.027360931669e-15 
   21       1.215459994506e-10       8.490766093111e-16       1.852427921109e-13       0.000000000000e+00       2.985976801188e-10       2.962878399828e-11      -2.753467167658e-16 
   22       1.233194297771e-10       1.002682995713e-15       1.948053580274e-13       0.000000000000e+00       2.753163965126e-10       2.750363164448e-11      -1.231169784500e-15 
   23       1.251467547184e-10       1.177026191654e-15       2.048267814528e-13       0.000000000000e+00       2.546351840729e-10       2.561075656218e-11      -5.529942013465e-15 
   24       1.270325356496e-10       1.372706302817e-15       2.149059366358e-13       0.000000000000e+00       2.360871118381e-10       2.386230167483e-11      -1.110069093199e-14 
   25       1.289675990875e-10       1.588738658803e-15       2.245894679462e-13       0.000000000000e+00       2.194244669049e-10       2.225902074661e-11      -1.616655432180e-14 
   26       1.309263108325e-10       1.823754038932e-15       2.333923432170e-13       0.000000000000e+00       2.043249564944e-10       2.081411111419e-11      -1.909380357141e-14 
   27       1.329176671877e-10       2.078794125924e-15       2.410874713942e-13       0.000000000000e+00       1.907127472696e-10       1.952041213267e-11      -1.968445722742e-14 
   28       1.349467831908e-10       2.355871922366e-15       2.475225717889e-13       0.000000000000e+00       1.784253323080e-10       1.834574271557e-11      -1.832038126642e-14 
   29       1.370053693609e-10       2.657244381555e-15       2.525874477303e-13       0.000000000000e+00       1.671673537718e-10       1.724618121916e-11      -1.559178321589e-14 
   30       1.390991740865e-10       2.984959000197e-15       2.563730360181e-13       0.000000000000e+00       1.568783777583e-10       1.622368482516e-11      -1.224122961841e-14 
   31       1.412278294419e-10       3.341159876845e-15       2.590835581109e-13       0.000000000000e+00       1.474834401408e-10       1.528898570124e-11      -9.231284277243e-15 
   32       1.433823103874e-10       3.727896329831e-15       2.609357911537e-13       0.000000000000e+00       1.388356033049e-10       1.444489091577e-11      -7.513180992487e-15 
   33       1.455671748841e-10       4.145995113533e-15       2.619262696420e-13       0.000000000000e+00       1.308888744546e-10       1.368227672700e-11      -7.098086435280e-15 
   34       1.477842466665e-10       4.595754028665e-15       2.619795326633e-13       0.000000000000e+00       1.235739938081e-10       1.298100104374e-11      -7.639914345465e-15 
   35       1.500293540675e-10       5.077386668713e-15       2.610019994662e-13       0.000000000000e+00       1.167833903239e-10       1.231751688605e-11      -8.717687346412e-15 
   36       1.523050291288e-10       5.591617172570e-15       2.588632703650e-13       0.000000000000e+00       1.105001515568e-10       1.169100738110e-11      -1.001160353682e-14 
   37       1.546106591452e-10       6.139274677539e-15       2.554056886574e-13       0.000000000000e+00       1.047052067827e-10       1.110542566465e-11      -1.117628066202e-14 
   38       1.569381077640e-10       6.721130423467e-15       2.504470470282e-13       0.000000000000e+00       9.933831080497e-11       1.056223130253e-11      -1.178745848064e-14 
   39       1.592764358319e-10       7.337912707830e-15       2.438197303824e-13       0.000000000000e+00       9.431993622675e-11       1.006052292934e-11      -1.147805619945e-14 
   40       1.616299352998e-10       7.990368104300e-15       2.355084836670e-13       0.000000000000e+00       8.963518425739e-11       9.598140627027e-12      -1.041485869601e-14 
   41       1.640049128503e-10       8.679214085162e-15       2.255566732679e-13       0.000000000000e+00       8.527211690416e-11       9.170491993905e-12      -8.975631017720e-15 
   42       1.664043338935e-10       9.405118958873e-15       2.140307791187e-13       0.000000000000e+00       8.119670649041e-11       8.769950772821e-12      -7.627348814109e-15 
   43       1.688289607580e-10       1.016870558665e-14       2.010001783627e-13       0.000000000000e+00       7.736552769480e-11       8.388230225666e-12      -6.812228591495e-15 
   44       1.712820868809e-10       1.097057046891e-14       1.864657205149e-13       0.000000000000e+00       7.377296721414e-11       8.024952712571e-12      -6.550118260742e-15 
   45       1.737656415606e-10       1.181126594816e-14       1.704111893327e-13       0.000000000000e+00       7.041560035871e-11       7.681350036567e-12      -6.721547142127e-15 
   46       1.762785285870e-10       1.269129195991e-14       1.528229533463e-13       0.000000000000e+00       6.727801041374e-11       7.357812945708e-12      -7.174575546206e-15 
   47       1.788163446215e-10       1.361109368075e-14       1.336899682073e-13       0.000000000000e+00       6.433185206251e-11       7.053818055980e-12      -7.722814681042e-15 
   48       1.813736173281e-10       1.457104264942e-14       1.129956721759e-13       0.000000000000e+00       6.154463185855e-11       6.768210678192e-12      -8.187469770839e-15 
   49       1.839519229255e-10       1.557137932481e-14       9.069096559939e-14       0.000000000000e+00       5.891116181271e-11       6.500318087472e-12      -8.542104001181e-15 
   50       1.865535730182e-10       1.661225029493e-14       6.671361871499e-14       0.000000000000e+00       5.642936304281e-11       6.249024516172e-12      -8.805279735695e-15 
   51       1.891791453341e-10       1.769372027377e-14       4.099531235237e-14       0.000000000000e+00       5.409089288097e-11       6.012389081907e-12      -9.000357590927e-15 
   52       1.918273306628e-10       1.881576890620e-14       1.346122666699e-14       0.000000000000e+00       5.188070406449e-11       5.787590868839e-12      -9.155762425778e-15 
   53       1.944963445186e-10       1.997832896949e-14      -1.595667917788e-14       0.000000000000e+00       4.978180410417e-11       5.571757950153e-12      -9.299659884801e-15 
   54       1.971889406206e-10       2.118141986525e-14      -4.727487231446e-14       0.000000000000e+00       4.779198487256e-11       5.364831143131e-12      -9.441766669226e-15 
   55       1.999084198290e-10       2.242504288539e-14      -8.049223901030e-14       0.000000000000e+00       4.591062664252e-11       5.167340932752e-12      -9.587326488647e-15 
   56       2.026570927769e-10       2.370914139355e-14      -1.156026082631e-13       0.000000000000e+00       4.413365670165e-11       4.979570533707e-12      -9.742321011214e-15 
   57       2.054361924164e-10       2.503359936569e-14      -1.525945890238e-13       0.000000000000e+00       4.245332658003e-11       4.801538034201e-12      -9.913501494736e-15 
   58       2.082457865632e-10       2.639823993073e-14      -1.914514074191e-13       0.000000000000e+00       4.085798927779e-11       4.632978539751e-12      -1.010842041780e-14 
   59       2.110853535419e-10       2.780282849827e-14      -2.321543773550e-13       0.000000000000e+00       3.933532378904e-11       4.473440700221e-12      -1.033222458827e-14 
   60       2.139558638546e-10       2.924708630468e-14      -2.746946232032e-13       0.000000000000e+00       3.788338907818e-11       4.322643022482e-12      -1.057709296316e-14 
   61       2.168580282327e-10       3.073067743911e-14      -3.190637966244e-13       0.000000000000e+00       3.650174800974e-11       4.180168892927e-12      -1.083039752040e-14 
   62       2.197916133926e-10       3.225320325570e-14      -3.652506437486e-13       0.000000000000e+00       3.518814200937e-11       4.045345776367e-12      -1.107764956026e-14 
   63       2.227553770585e-10       3.381420106963e-14      -4.132409655638e-13       0.000000000000e+00       3.393838514903e-11       3.917231237230e-12      -1.130242155609e-14 
   64       2.257470029857e-10       3.541314285325e-14      -4.630175783039e-13       0.000000000000e+00       3.274625823211e-11       3.794598960761e-12      -1.148626900496e-14 
   65       2.287641857975e-10       3.704938350654e-14      -5.145624255815e-13       0.000000000000e+00       3.160523638628e-11       3.676258519190e-12      -1.161265384464e-14 
   66       2.318082984809e-10       3.872199586377e-14      -5.678635236667e-13       0.000000000000e+00       3.051433499688e-11       3.562124780461e-12      -1.167985600411e-14 
   67       2.348813877460e-10       4.042989831004e-14      -6.229094206349e-13       0.000000000000e+00       2.947331616668e-11       3.452350662564e-12      -1.169066467632e-14 
   68       2.379850605473e-10       4.217189945990e-14      -6.796871946048e-13       0.000000000000e+00       2.848091084708e-11       3.347008816657e-12      -1.164865118822e-14 
   69       2.411204512698e-10       4.394669544292e-14      -7.381824743156e-13       0.000000000000e+00       2.753476421021e-11       3.246086983793e-12      -1.155820278330e-14 
   70       2.442881889148e-10       4.575286718931e-14      -7.983794597044e-13       0.000000000000e+00       2.663138102098e-11       3.149483351642e-12      -1.142455640424e-14 
   71       2.474883642854e-10       4.758887771547e-14      -8.602609424824e-13       0.000000000000e+00       2.576607100918e-11       3.057001911211e-12      -1.125383247551e-14 
   72       2.507208752860e-10       4.945319781712e-14      -9.238061095090e-13       0.000000000000e+00       2.493416218168e-11       2.968414256425e-12      -1.105255788043e-14 
   73       2.539866124754e-10       5.134471711233e-14      -9.889834190465e-13       0.000000000000e+00       2.413503177936e-11       2.883669034501e-12      -1.082605381481e-14 
   74       2.572864428397e-10       5.326240736017e-14      -1.055756387922e-12       0.000000000000e+00       2.336875394340e-11       2.802714495617e-12      -1.057979809158e-14 
   75       2.606208280716e-10       5.520520125759e-14      -1.124085658040e-12       0.000000000000e+00       2.263487508934e-11       2.725432539166e-12      -1.031993027177e-14 
   76       2.639898003890e-10       5.717199265676e-14      -1.193928966338e-12       0.000000000000e+00       2.193238822755e-11       2.651635587430e-12      -1.005327378483e-14 
   77       2.673929383539e-10       5.916163678230e-14      -1.265241114742e-12       0.000000000000e+00       2.125970728368e-11       2.581063459274e-12      -9.787358049063e-15 
   78       2.708293426900e-10       6.117295044856e-14      -1.337973940123e-12       0.000000000000e+00       2.061464141919e-11       2.513380243819e-12      -9.530440592000e-15 
   79       2.742976121021e-10       6.320471227687e-14      -1.412076284255e-12       0.000000000000e+00       1.999436935178e-11       2.448171174131e-12      -9.291529170760e-15 
   80       2.777964059897e-10       6.525561343667e-14      -1.487496257688e-12       0.000000000000e+00       1.939614407289e-11       2.385042317520e-12      -9.078413891366e-15 
   81       2.813262983303e-10       6.732409953907e-14      -1.564188550264e-12       0.000000000000e+00       1.881960443857e-11       2.323946462408e-12      -8.891321325681e-15 
   82       2.848882031165e-10       6.940850155359e-14      -1.642108341292e-12       0.000000000000e+00       1.826482002453e-11       2.264908384772e-12      -8.728193551299e-15 
   83       2.884828029487e-10       7.150708215743e-14      -1.721209130628e-12       0.000000000000e+00       1.773158441908e-11       2.207925854854e-12      -8.586565763671e-15 
   84       2.921105357222e-10       7.361803503649e-14      -1.801442751117e-12       0.000000000000e+00       1.721940306946e-11       2.152968414850e-12      -8.463551544617e-15 
   85       2.957715813135e-10       7.573948418641e-14      -1.882759381024e-12       0.000000000000e+00       1.672748112821e-11       2.099976156608e-12      -8.355828130833e-15 
   86       2.994658482683e-10       7.786948321360e-14      -1.965107556475e-12       0.000000000000e+00       1.625471129947e-11       2.048858499320e-12      -8.259621682402e-15 
   87       3.031929604875e-10       8.000601463632e-14      -2.048434183888e-12       0.000000000000e+00       1.579966168538e-11       1.999492967220e-12      -8.170692551302e-15 
   88       3.069522439146e-10       8.214698918568e-14      -2.132684552410e-12       0.000000000000e+00       1.536056363240e-11       1.951723967273e-12      -8.084320549917e-15 
   89       3.107430034974e-10       8.429031580578e-14      -2.217802382210e-12       0.000000000000e+00       1.493573522379e-11       1.905403016828e-12      -7.996343897457e-15 
   90       3.145654328840e-10       8.643412576177e-14      -2.303729950915e-12       0.000000000000e+00       1.452495438265e-11       1.860519322847e-12      -7.906494947443e-15 
   91       3.184198235643e-10       8.857658256287e-14      -2.390408010012e-12       0.000000000000e+00       1.412827977408e-11       1.817087529615e-12      -7.815563020104e-15 
   92       3.223062784593e-10       9.071581474794e-14      -2.477775763549e-12       0.000000000000e+00       1.374562878528e-11       1.775107499320e-12      -7.724388345450e-15 
   93       3.262247029569e-10       9.284991624577e-14      -2.565770881110e-12       0.000000000000e+00       1.337677189840e-11       1.734563710723e-12      -7.633863117222e-15 
   94       3.301747959474e-10       9.497694673524e-14      -2.654329510787e-12       0.000000000000e+00       1.302132706340e-11       1.695424657824e-12      -7.544932546835e-15 
   95       3.341560408592e-10       9.709493200556e-14      -2.743386292154e-12       0.000000000000e+00       1.267875407098e-11       1.657642248530e-12      -7.458595917326e-15 
   96       3.381676966942e-10       9.920186431643e-14      -2.832874369241e-12       0.000000000000e+00       1.234834892543e-11       1.621151203324e-12      -7.375907637300e-15 
   97       3.422087890638e-10       1.012957027583e-13      -2.922725403502e-12       0.000000000000e+00       1.202923821751e-11       1.585868453930e-12      -7.297978294876e-15 
   98       3.462781012242e-10       1.033743736124e-13      -3.012869586795e-12       0.000000000000e+00       1.172037349735e-11       1.551692541981e-12      -7.225975711633e-15 
   99       3.503744573158e-10       1.054358059632e-13      -3.103236382977e-12       0.000000000000e+00       1.142077288565e-11       1.518527039101e-12      -7.160810323909e-15 
  100       3.544976372334e-10       1.074780435100e-13      -3.193756844511e-12       0.000000000000e+00       1.113029711933e-11       1.486355892068e-12      -7.102138200994e-15 
  101       3.586475752890e-10       1.094991493357e-13      -3.284361649615e-12       0.000000000000e+00       1.084897348395e-11       1.455177682199e-12      -7.049218114019e-15 
  102       3.628240742154e-10       1.114971728445e-13      -3.374980424437e-12       0.000000000000e+00       1.057675578463e-11       1.424982249771e-12      -7.001211873089e-15 
  103       3.670267997428e-10       1.134701505499e-13      -3.465541764861e-12       0.000000000000e+00       1.031352171579e-11       1.395750383857e-12      -6.957181554889e-15 
  104       3.712552751772e-10       1.154161068621e-13      -3.555973258310e-12       0.000000000000e+00       1.005907023085e-11       1.367453512168e-12      -6.916086730300e-15 
  105       3.755088759773e-10       1.173330548755e-13      -3.646201505554e-12       0.000000000000e+00       9.813118911954e-12       1.340053390883e-12      -6.876781692005e-15 
  106       3.797868243322e-10       1.192189971562e-13      -3.736152142512e-12       0.000000000000e+00       9.575301339649e-12       1.313501794486e-12      -6.838012682106e-15 
  107       3.840881837390e-10       1.210719265295e-13      -3.825749862060e-12       0.000000000000e+00       9.345164462626e-12       1.287740205607e-12      -6.798415119730e-15 
