# Matter power spectrum P(k) at redshift z=0.5
# for k=1.04952e-05 to 58.9789 h/Mpc,
# number of wavenumbers equal to 575
#    1:k (h/Mpc)              2:P (Mpc/h)^3        
       1.049521996540e-05       2.765632011384e+01 
       2.312703140351e-05       5.936003381685e+01 
       3.580220203963e-05       9.056486211254e+01 
       4.855352787053e-05       1.215790240370e+02 
       6.141433211936e-05       1.525812571640e+02 
       7.441875102904e-05       1.837070756095e+02 
       8.760202852808e-05       2.150732360988e+02 
       1.010008235465e-04       2.467878249261e+02 
       1.146535337898e-04       2.789554503111e+02 
       1.286006398104e-04       3.116803967074e+02 
       1.428850732267e-04       3.450688308813e+02 
       1.575526129020e-04       3.792305140437e+02 
       1.726523127585e-04       4.142802750694e+02 
       1.882369646229e-04       4.503393500024e+02 
       2.043635989836e-04       4.875366749625e+02 
       2.210940257026e-04       5.260101606600e+02 
       2.384954154191e-04       5.659079769198e+02 
       2.566409204418e-04       6.073898534460e+02 
       2.756103311382e-04       6.506283902107e+02 
       2.954907599292e-04       6.958103632577e+02 
       3.163773396783e-04       7.431379919446e+02 
       3.383739161997e-04       7.928301155905e+02 
       3.615937054699e-04       8.451232135253e+02 
       3.861598746494e-04       9.002721669856e+02 
       4.122059921309e-04       9.585506346913e+02 
       4.398762757783e-04       1.020250891865e+03 
       4.693255511264e-04       1.085682917139e+03 
       5.007188142551e-04       1.155172529922e+03 
       5.342302801493e-04       1.229058307530e+03 
       5.700417908375e-04       1.307687049846e+03 
       6.083404640704e-04       1.391407562922e+03 
       6.493154893013e-04       1.480562637102e+03 
       6.931540295049e-04       1.575479191009e+03 
       7.400362688145e-04       1.676456793164e+03 
       7.901297556666e-04       1.783754980370e+03 
       8.435833195405e-04       1.897580096418e+03 
       9.005209670199e-04       2.018072617044e+03 
       9.610362618295e-04       2.145296111456e+03 
       1.025187732878e-03       2.279229007817e+03 
       1.092995810025e-03       2.419760183832e+03 
       1.164441652253e-03       2.566689069208e+03 
       1.239468023948e-03       2.719707468741e+03 
       1.317982131218e-03       2.878464451631e+03 
       1.365374112507e-03       2.973620029539e+03 
       1.399860102217e-03       3.042545616184e+03 
       1.484952629637e-03       3.211478541710e+03 
       1.573091217505e-03       3.384758372985e+03 
       1.664094490714e-03       3.561863750220e+03 
       1.757774114867e-03       3.742269831789e+03 
       1.853940004620e-03       3.925461213399e+03 
       1.952404638443e-03       4.110940546007e+03 
       2.052986422001e-03       4.298235612683e+03 
       2.155512137086e-03       4.486904233025e+03 
       2.259818574702e-03       4.676536503927e+03 
       2.365753482517e-03       4.866757062711e+03 
       2.473175965450e-03       5.057223047108e+03 
       2.581956471182e-03       5.247626878314e+03 
       2.691976476543e-03       5.437690242012e+03 
       2.803127971240e-03       5.627165170861e+03 
       2.915312815527e-03       5.815831291051e+03 
       3.028442030286e-03       6.003491885941e+03 
       3.142435062419e-03       6.189975220724e+03 
       3.257219055803e-03       6.375126715011e+03 
       3.372728148150e-03       6.558813251456e+03 
       3.488902806543e-03       6.740915829438e+03 
       3.605689208915e-03       6.921333637800e+03 
       3.723038674752e-03       7.099975002210e+03 
       3.840907145565e-03       7.276762666230e+03 
       3.959254713861e-03       7.451629514681e+03 
       4.078045198199e-03       7.624517145396e+03 
       4.197245761236e-03       7.795377636856e+03 
       4.316826567374e-03       7.964166838469e+03 
       4.436760476516e-03       8.130852331254e+03 
       4.557022770484e-03       8.295404452634e+03 
       4.677590908857e-03       8.457796724697e+03 
       4.798444311143e-03       8.618014089411e+03 
       4.919564162495e-03       8.776038926402e+03 
       5.040933240388e-03       8.931862087841e+03 
       5.162535759947e-03       9.085475623674e+03 
       5.284357235852e-03       9.236870658117e+03 
       5.406384358951e-03       9.386051219343e+03 
       5.528604885928e-03       9.533014094075e+03 
       5.651007540563e-03       9.677759217176e+03 
       5.773581925274e-03       9.820294353804e+03 
       5.896318441787e-03       9.960622617873e+03 
       6.019208219924e-03       1.009875101809e+04 
       6.142243053592e-03       1.023469016898e+04 
       6.265415343199e-03       1.036844437517e+04 
       6.388718043770e-03       1.050002897227e+04 
       6.512144618156e-03       1.062945600203e+04 
       6.635688994790e-03       1.075673438397e+04 
       6.759345529484e-03       1.088187807007e+04 
       6.883108970869e-03       1.100490366114e+04 
       7.006974429057e-03       1.112581825151e+04 
       7.130937347233e-03       1.124464338411e+04 
       7.254993475829e-03       1.136139349306e+04 
       7.379138849064e-03       1.147608285222e+04 
       7.503369763566e-03       1.158871993693e+04 
       7.627682758903e-03       1.169933514652e+04 
       7.752074599819e-03       1.180793000053e+04 
       7.876542260001e-03       1.191452122147e+04 
       8.001082907249e-03       1.201913494211e+04 
       8.125693889895e-03       1.212179001344e+04 
       8.250372724364e-03       1.222249568052e+04 
       8.375117083770e-03       1.232126486608e+04 
       8.499924787441e-03       1.241812627032e+04 
       8.624793791300e-03       1.251308710300e+04 
       8.749722179018e-03       1.260616675651e+04 
       8.874708153873e-03       1.269737961337e+04 
       8.999750031245e-03       1.278674206964e+04 
       9.124846231701e-03       1.287428694460e+04 
       9.249995274615e-03       1.296001413219e+04 
       9.375195772273e-03       1.304394361510e+04 
       9.500446424428e-03       1.312609694048e+04 
       9.625746013265e-03       1.320648199691e+04 
       9.751093398737e-03       1.328512431001e+04 
       9.876487514253e-03       1.336203918663e+04 
       1.000192736268e-02       1.343723914424e+04 
       1.012741201262e-02       1.351074119115e+04 
       1.025294059501e-02       1.358256027582e+04 
       1.037851229988e-02       1.365272420692e+04 
       1.050412637342e-02       1.372122839746e+04 
       1.062978211522e-02       1.378810766157e+04 
       1.075547887571e-02       1.385336908164e+04 
       1.088121605378e-02       1.391703185773e+04 
       1.100699309458e-02       1.397911405828e+04 
       1.113280948744e-02       1.403962130066e+04 
       1.125866476396e-02       1.409858226984e+04 
       1.138455849626e-02       1.415600068563e+04 
       1.151049029527e-02       1.421189818651e+04 
       1.163645980924e-02       1.426629244286e+04 
       1.176246672226e-02       1.431919343838e+04 
       1.188851075295e-02       1.437062038872e+04 
       1.201459165321e-02       1.442058453959e+04 
       1.214070920707e-02       1.446910182716e+04 
       1.226686322961e-02       1.451618510496e+04 
       1.239305356596e-02       1.456185857932e+04 
       1.251928009038e-02       1.460612918289e+04 
       1.264554270538e-02       1.464900733217e+04 
       1.277184134097e-02       1.469051038223e+04 
       1.289817595385e-02       1.473065768879e+04 
       1.302454652681e-02       1.476946228873e+04 
       1.315095306802e-02       1.480693769560e+04 
       1.327739561051e-02       1.484310401381e+04 
       1.340387421161e-02       1.487796724051e+04 
       1.353038895245e-02       1.491153354116e+04 
       1.365374112507e-02       1.494303786322e+04 
       1.365693993753e-02       1.494383825826e+04 
       1.378352729429e-02       1.497487800854e+04 
       1.391015117276e-02       1.500466657444e+04 
       1.403681174522e-02       1.503322897651e+04 
       1.416350920586e-02       1.506057121799e+04 
       1.429024377057e-02       1.508670448977e+04 
       1.441701567666e-02       1.511164091642e+04 
       1.454382518265e-02       1.513540978745e+04 
       1.467067256809e-02       1.515800649174e+04 
       1.479755813344e-02       1.517944763547e+04 
       1.492448219987e-02       1.519975174521e+04 
       1.505144510923e-02       1.521892289884e+04 
       1.517844722390e-02       1.523699010404e+04 
       1.530548892679e-02       1.525395640705e+04 
       1.543257062128e-02       1.526982818373e+04 
       1.555969273119e-02       1.528462946802e+04 
       1.568685570080e-02       1.529835827833e+04 
       1.581405999491e-02       1.531103752354e+04 
       1.594130609881e-02       1.532268503975e+04 
       1.606859451845e-02       1.533330535762e+04 
       1.619592578041e-02       1.534290968046e+04 
       1.632330043209e-02       1.535151468334e+04 
       1.645071904182e-02       1.535913324083e+04 
       1.657818219894e-02       1.536576375089e+04 
       1.670569051404e-02       1.537144618120e+04 
       1.683324461908e-02       1.537616403367e+04 
       1.696084516758e-02       1.537994050541e+04 
       1.708849283487e-02       1.538278865835e+04 
       1.721618831828e-02       1.538471834379e+04 
       1.734393233738e-02       1.538573816368e+04 
       1.747172563426e-02       1.538587451600e+04 
       1.759956897380e-02       1.538511965270e+04 
       1.772746314395e-02       1.538349164934e+04 
       1.785540895603e-02       1.538100645496e+04 
       1.798340724509e-02       1.537767085599e+04 
       1.811145887023e-02       1.537349265862e+04 
       1.823956471493e-02       1.536849673984e+04 
       1.836772568748e-02       1.536268349240e+04 
       1.849594272132e-02       1.535606081126e+04 
       1.862421677549e-02       1.534865246538e+04 
       1.875254883503e-02       1.534045270655e+04 
       1.888093991143e-02       1.533148474517e+04 
       1.900939104308e-02       1.532175580176e+04 
       1.913790329576e-02       1.531126641755e+04 
       1.926647776316e-02       1.530006541832e+04 
       1.939511556735e-02       1.528811407203e+04 
       1.952381785932e-02       1.527544270415e+04 
       1.965258581958e-02       1.526207544934e+04 
       1.978142065867e-02       1.524800739591e+04 
       1.991032361781e-02       1.523324318260e+04 
       2.003929596947e-02       1.521780366976e+04 
       2.016833901800e-02       1.520170001236e+04 
       2.029745410034e-02       1.518494701806e+04 
       2.042664258664e-02       1.516751913041e+04 
       2.055590588096e-02       1.514949583651e+04 
       2.068524542204e-02       1.513081245077e+04 
       2.081466268399e-02       1.511152573288e+04 
       2.094415917710e-02       1.509162606527e+04 
       2.107373644860e-02       1.507113029052e+04 
       2.120339608349e-02       1.505005064661e+04 
       2.133313970539e-02       1.502839103400e+04 
       2.146296897743e-02       1.500614998536e+04 
       2.159288560309e-02       1.498336400581e+04 
       2.172289132719e-02       1.496003999623e+04 
       2.185298793680e-02       1.493614751494e+04 
       2.198317726226e-02       1.491172630629e+04 
       2.211346117817e-02       1.488678502472e+04 
       2.224384160444e-02       1.486132712712e+04 
       2.237432050741e-02       1.483538444200e+04 
       2.250489990091e-02       1.480892967121e+04 
       2.263558184744e-02       1.478199776968e+04 
       2.276636845936e-02       1.475456471272e+04 
       2.289726190010e-02       1.472670067893e+04 
       2.302826438544e-02       1.469833732918e+04 
       2.315937818478e-02       1.466952726714e+04 
       2.329060562252e-02       1.464028423040e+04 
       2.342194907944e-02       1.461058784633e+04 
       2.355341099411e-02       1.458047919493e+04 
       2.368499386438e-02       1.455007788923e+04 
       2.381670024890e-02       1.451911820915e+04 
       2.394853276872e-02       1.448776509674e+04 
       2.408049410886e-02       1.445586814344e+04 
       2.421258702004e-02       1.442373968935e+04 
       2.434481432038e-02       1.439111859127e+04 
       2.447717889721e-02       1.435829524264e+04 
       2.460968370890e-02       1.432506511732e+04 
       2.474233178679e-02       1.429146103185e+04 
       2.487512623713e-02       1.425748798942e+04 
       2.500807024316e-02       1.422326251006e+04 
       2.514116706717e-02       1.418867149509e+04 
       2.527442005274e-02       1.415377991958e+04 
       2.540783262693e-02       1.411850330820e+04 
       2.554140830266e-02       1.408298325408e+04 
       2.567515068109e-02       1.404692070119e+04 
       2.580906345412e-02       1.401067289866e+04 
       2.594315040699e-02       1.397409866668e+04 
       2.607741542092e-02       1.393732098761e+04 
       2.621186247592e-02       1.390030987691e+04 
       2.634649565360e-02       1.386301533631e+04 
       2.648131914018e-02       1.382532197298e+04 
       2.661633722956e-02       1.378748406451e+04 
       2.675155432646e-02       1.374947567004e+04 
       2.688697494980e-02       1.371116019532e+04 
       2.702260373605e-02       1.367251183079e+04 
       2.715844544282e-02       1.363379975547e+04 
       2.729450495252e-02       1.359474856067e+04 
       2.743078727620e-02       1.355550880139e+04 
       2.756729755751e-02       1.351611075454e+04 
       2.770404107680e-02       1.347632475807e+04 
       2.784102325542e-02       1.343645854450e+04 
       2.797824966012e-02       1.339630123024e+04 
       2.811572600772e-02       1.335611742133e+04 
       2.825345816984e-02       1.331566172956e+04 
       2.839145217793e-02       1.327500815278e+04 
       2.852971422842e-02       1.323423950915e+04 
       2.866825068814e-02       1.319319981719e+04 
       2.880706809989e-02       1.315209562364e+04 
       2.894617318833e-02       1.311078178175e+04 
       2.908557286599e-02       1.306933768790e+04 
       2.922527423967e-02       1.302769280808e+04 
       2.936528461699e-02       1.298598231912e+04 
       2.950561151327e-02       1.294414094212e+04 
       2.964626265871e-02       1.290204696621e+04 
       2.978724600587e-02       1.285998694770e+04 
       2.992856973743e-02       1.281760765916e+04 
       3.007024227437e-02       1.277519386891e+04 
       3.021227228447e-02       1.273265744790e+04 
       3.035466869112e-02       1.269003633825e+04 
       3.049744068270e-02       1.264726851615e+04 
       3.064059772216e-02       1.260439600224e+04 
       3.078414955727e-02       1.256146327350e+04 
       3.092810623112e-02       1.251841471878e+04 
       3.107247809328e-02       1.247522328095e+04 
       3.121727581141e-02       1.243193895300e+04 
       3.136251038344e-02       1.238858169719e+04 
       3.150819315026e-02       1.234525547221e+04 
       3.165433580918e-02       1.230171269092e+04 
       3.180095042788e-02       1.225814412322e+04 
       3.194804945918e-02       1.221450343400e+04 
       3.209564575643e-02       1.217071595455e+04 
       3.224375258975e-02       1.212698639521e+04 
       3.239238366311e-02       1.208313822951e+04 
       3.254155313219e-02       1.203922251935e+04 
       3.269127562329e-02       1.199526000558e+04 
       3.284156625309e-02       1.195121239253e+04 
       3.299244064961e-02       1.190713621525e+04 
       3.314391497415e-02       1.186292895882e+04 
       3.329600594452e-02       1.181879485376e+04 
       3.344873085946e-02       1.177444632132e+04 
       3.360210762447e-02       1.173028655121e+04 
       3.375615477904e-02       1.168590700205e+04 
       3.391089152544e-02       1.164159993953e+04 
       3.406633775914e-02       1.159720421368e+04 
       3.422251410098e-02       1.155261736674e+04 
       3.437944193124e-02       1.150812009137e+04 
       3.453714342572e-02       1.146377959192e+04 
       3.469564159391e-02       1.141907674819e+04 
       3.485496031959e-02       1.137450961365e+04 
       3.501512440381e-02       1.132994253203e+04 
       3.517615961053e-02       1.128525287738e+04 
       3.533809271520e-02       1.124060246664e+04 
       3.550095155638e-02       1.119588933802e+04 
       3.566476509059e-02       1.115108370150e+04 
       3.582956345090e-02       1.110631346395e+04 
       3.599537800921e-02       1.106162948146e+04 
       3.616224144278e-02       1.101675777784e+04 
       3.633018780522e-02       1.097194082467e+04 
       3.649925260238e-02       1.092709228489e+04 
       3.666947287342e-02       1.088233892432e+04 
       3.684088727768e-02       1.083716035540e+04 
       3.701353618767e-02       1.079228674739e+04 
       3.718746178881e-02       1.074743698886e+04 
       3.736270818650e-02       1.070221502234e+04 
       3.753932152108e-02       1.065708330615e+04 
       3.771735009151e-02       1.061209283980e+04 
       3.789684448856e-02       1.056692975876e+04 
       3.807785773819e-02       1.052175665928e+04 
       3.826044545641e-02       1.047681183562e+04 
       3.844466601636e-02       1.043155273906e+04 
       3.863058072912e-02       1.038610926578e+04 
       3.881825403931e-02       1.034074816126e+04 
       3.900775373718e-02       1.029538623757e+04 
       3.919915118867e-02       1.024997417294e+04 
       3.939252158552e-02       1.020467948578e+04 
       3.958794421722e-02       1.015894196449e+04 
       3.978550276748e-02       1.011337053162e+04 
       3.998528563753e-02       1.006769824766e+04 
       4.018738629947e-02       1.002200758738e+04 
       4.039190368285e-02       9.976405931620e+03 
       4.059894259839e-02       9.930555609761e+03 
       4.080861420303e-02       9.884605983437e+03 
       4.102103651135e-02       9.838384841529e+03 
       4.123633495873e-02       9.792438295499e+03 
       4.145464302275e-02       9.745973551311e+03 
       4.167610291004e-02       9.699642105092e+03 
       4.190086631689e-02       9.653421719769e+03 
       4.212909527328e-02       9.606655049734e+03 
       4.236096308119e-02       9.560201807530e+03 
       4.259665536020e-02       9.513262957331e+03 
       4.283637121485e-02       9.466088434065e+03 
       4.308032454123e-02       9.419030470544e+03 
       4.332874549257e-02       9.371636119094e+03 
       4.358188212733e-02       9.324133257726e+03 
       4.384000226720e-02       9.276577842420e+03 
       4.410339559722e-02       9.228600867095e+03 
       4.437237604613e-02       9.180311002512e+03 
       4.464728449199e-02       9.131988713680e+03 
       4.492849184662e-02       9.083281605485e+03 
       4.521640258286e-02       9.034357224829e+03 
       4.551145878105e-02       8.985246394727e+03 
       4.581414478669e-02       8.935802603953e+03 
       4.612499259042e-02       8.885776660882e+03 
       4.644458806457e-02       8.835559139636e+03 
       4.677357822008e-02       8.784845391809e+03 
       4.711267968374e-02       8.733766699856e+03 
       4.746268864115e-02       8.682398350402e+03 
       4.782449254793e-02       8.630141948571e+03 
       4.819908398384e-02       8.577606727001e+03 
       4.858757711544e-02       8.524273860108e+03 
       4.899122734876e-02       8.470475851012e+03 
       4.941145490069e-02       8.415829326079e+03 
       4.984987320553e-02       8.360478884385e+03 
       5.030832331237e-02       8.304285232336e+03 
       5.078891573332e-02       8.247070521970e+03 
       5.129408158764e-02       8.188688326258e+03 
       5.182663536882e-02       8.129168583315e+03 
       5.238985225398e-02       8.068338309387e+03 
       5.298756357877e-02       8.006006563326e+03 
       5.362427488643e-02       7.941751460871e+03 
       5.430531172732e-02       7.875616243560e+03 
       5.503699888707e-02       7.806968339837e+03 
       5.582687841361e-02       7.735598428188e+03 
       5.668396957533e-02       7.660770252910e+03 
       5.761906753035e-02       7.581902950892e+03 
